jMRUI Data Textfile

Filename: Asc.txt

PointsInDataset: 2048      
DatasetsInFile: 1         
SamplingInterval: 2.5E-1    
ZeroOrderPhase: 0E0       
BeginTime: 0E0       
TransmitterFrequency: 1.2322E8  
MagneticField: 2.9E0     
TypeOfNucleus: 0E0       
NameOfPatient: Asc
DateOfExperiment: 
Spectrometer: 
AdditionalInfo: Asc
SignalNames: Asc.txt;


Signal and FFT
sig(real)	sig(imag)	fft(real)	fft(imag)
Signal 1 out of 1 in file
3.8364500	0.0081750
3.7527300	-0.5353910
3.5509400	-1.0048600
3.2989800	-1.3746700
3.0532500	-1.6756700
2.8200700	-1.9638700
2.5563200	-2.2710500
2.2085400	-2.5749200
1.7606200	-2.8113900
1.2537000	-2.9197800
0.7632050	-2.8866200
0.3501640	-2.7551700
0.0234758	-2.5933700
-0.2585900	-2.4446700
-0.5491940	-2.2988400
-0.8659770	-2.1046500
-1.1720800	-1.8145300
-1.3995400	-1.4272000
-1.4973800	-0.9957540
-1.4680400	-0.5950370
-1.3646000	-0.2728590
-1.2511900	-0.0217106
-1.1563800	0.2079000
-1.0548800	0.4629250
-0.8911640	0.7460410
-0.6267850	1.0084200
-0.2754470	1.1825200
0.1008870	1.2300400
0.4319990	1.1689000
0.6853920	1.0588300
0.8836720	0.9567020
1.0805100	0.8753060
1.3137000	0.7767870
1.5710100	0.6053600
1.7948800	0.3343610
1.9222800	-0.0081698
1.9296800	-0.3548370
1.8491700	-0.6436480
1.7435900	-0.8584370
1.6596500	-1.0346300
1.5944900	-1.2262700
1.5008700	-1.4596100
1.3267200	-1.7084500
1.0590700	-1.9100900
0.7388050	-2.0097000
0.4351100	-1.9996200
0.1988080	-1.9239100
0.0297649	-1.8448700
-0.1172280	-1.7968500
-0.2928510	-1.7624200
-0.5101470	-1.6885700
-0.7306660	-1.5306200
-0.8903680	-1.2903000
-0.9456730	-1.0191200
-0.9048440	-0.7844370
-0.8210580	-0.6237200
-0.7525140	-0.5215980
-0.7198280	-0.4266500
-0.6928650	-0.2950490
-0.6167810	-0.1277700
-0.4573580	0.0268488
-0.2311320	0.1071580
0.0025466	0.0830580
0.1815800	-0.0222154
0.2830900	-0.1497740
0.3357090	-0.2487350
0.3931760	-0.3128050
0.4894620	-0.3822290
0.6095600	-0.5098230
0.6980990	-0.7170140
0.6992270	-0.9732930
0.5976020	-1.2147000
0.4295080	-1.3873800
0.2558080	-1.4834100
0.1172840	-1.5419500
0.0061274	-1.6151200
-0.1249840	-1.7246900
-0.3233020	-1.8424400
-0.5960740	-1.9091400
-0.9005840	-1.8776400
-1.1717600	-1.7476300
-1.3665100	-1.5657000
-1.4913800	-1.3908700
-1.5928100	-1.2516200
-1.7176600	-1.1270200
-1.8740300	-0.9659500
-2.0221400	-0.7296890
-2.1022300	-0.4255370
-2.0781800	-0.1058340
-1.9640800	0.1668420
-1.8135500	0.3620670
-1.6801000	0.4996260
-1.5785400	0.6297990
-1.4765100	0.7910570
-1.3224400	0.9773410
-1.0884700	1.1397600
-0.7958340	1.2213700
-0.5033120	1.1987900
-0.2675450	1.0990700
-0.1051090	0.9792940
0.0151180	0.8843380
0.1437620	0.8148320
0.3085000	0.7293930
0.4896150	0.5792930
0.6320850	0.3491320
0.6850420	0.0726150
0.6387360	-0.1885390
0.5311080	-0.3866340
0.4190970	-0.5192830
0.3364920	-0.6264490
0.2701860	-0.7557360
0.1726740	-0.9223960
0.0011585	-1.0944200
-0.2465050	-1.2140100
-0.5262930	-1.2391700
-0.7771300	-1.1739200
-0.9626590	-1.0644300
-1.0941600	-0.9640680
-1.2174800	-0.8938270
-1.3741500	-0.8281680
-1.5661900	-0.7166910
-1.7514200	-0.5251620
-1.8727400	-0.2646730
-1.8992100	0.0131647
-1.8479700	0.2513830
-1.7703800	0.4266090
-1.7130900	0.5624700
-1.6835000	0.7075330
-1.6456700	0.8946670
-1.5496200	1.1127500
-1.3717300	1.3121300
-1.1355200	1.4397800
-0.8970380	1.4773800
-0.7060360	1.4537500
-0.5720690	1.4222200
-0.4611600	1.4201800
-0.3252750	1.4414700
-0.1421270	1.4424200
0.0649173	1.3767300
0.2419120	1.2327700
0.3429470	1.0449200
0.3630970	0.8704230
0.3408410	0.7492310
0.3282500	0.6771330
0.3515760	0.6124020
0.3920660	0.5106580
0.4014030	0.3614400
0.3399420	0.1987250
0.2086980	0.0774551
0.0508379	0.0338473
-0.0784387	0.0595183
-0.1508490	0.1088940
-0.1834230	0.1341950
-0.2226020	0.1214490
-0.3062530	0.1003280
-0.4324810	0.1204760
-0.5588840	0.2123900
-0.6327670	0.3625340
-0.6294500	0.5215350
-0.5696990	0.6392300
-0.5032090	0.7000780
-0.4707310	0.7322310
-0.4735440	0.7835810
-0.4733160	0.8830780
-0.4223230	1.0166900
-0.3010360	1.1362000
-0.1345770	1.1941500
0.0243975	1.1784400
0.1334140	1.1205200
0.1899890	1.0710400
0.2310960	1.0614200
0.3028560	1.0805800
0.4235470	1.0842000
0.5679740	1.0294500
0.6850200	0.9088100
0.7350400	0.7573190
0.7188060	0.6278070
0.6761640	0.5528970
0.6555260	0.5224380
0.6773540	0.4933530
0.7192540	0.4242570
0.7338510	0.3085560
0.6858020	0.1809290
0.5798480	0.0923401
0.4586710	0.0725299
0.3722210	0.1083580
0.3417270	0.1543040
0.3455610	0.1670870
0.3375170	0.1381480
0.2835140	0.0994641
0.1888770	0.0984103
0.0955350	0.1608020
0.0513158	0.2701450
0.0746167	0.3787850
0.1411470	0.4424660
0.2026960	0.4521650
0.2236250	0.4391810
0.2074570	0.4497790
0.1934980	0.5086980
0.2261730	0.5992030
0.3203770	0.6747410
0.4490950	0.6933300
0.5626290	0.6486240
0.6248320	0.5741940
0.6389630	0.5178740
0.6436770	0.5056640
0.6823380	0.5225000
0.7689690	0.5243600
0.8766390	0.4724280
0.9570320	0.3633780
0.9763140	0.2328650
0.9401620	0.1296130
0.8890560	0.0797581
0.8675000	0.0683833
0.8905080	0.0521206
0.9327050	-0.0068475
0.9481710	-0.1111950
0.9059250	-0.2256580
0.8141170	-0.3030940
0.7146590	-0.3196110
0.6523990	-0.2921920
0.6421900	-0.2655450
0.6587360	-0.2782140
0.6567770	-0.3336260
0.6062320	-0.3979440
0.5156540	-0.4262330
0.4262790	-0.3970510
0.3812490	-0.3292520
0.3933370	-0.2683200
0.4355970	-0.2526450
0.4619190	-0.2852560
0.4418770	-0.3323550
0.3834780	-0.3496460
0.3266760	-0.3164370
0.3126510	-0.2517030
0.3522040	-0.1999910
0.4171660	-0.1979280
0.4612860	-0.2467040
0.4547310	-0.3113190
0.4060890	-0.3470960
0.3553010	-0.3333290
0.3429700	-0.2886180
0.3793470	-0.2563810
0.4364460	-0.2715940
0.4691820	-0.3340020
0.4494680	-0.4080470
0.3874330	-0.4495040
0.3237570	-0.4386240
0.2989950	-0.3947150
0.3231450	-0.3612060
0.3684490	-0.3725920
0.3907810	-0.4283150
0.3633440	-0.4932970
0.2971370	-0.5246590
0.2327510	-0.5043070
0.2097580	-0.4527360
0.2369100	-0.4136530
0.2856680	-0.4211250
0.3118650	-0.4741210
0.2890540	-0.5376690
0.2282700	-0.5696400
0.1693360	-0.5528170
0.1503710	-0.5079680
0.1786420	-0.4780870
0.2248170	-0.4957990
0.2449000	-0.5586170
0.2132030	-0.6307480
0.1414040	-0.6699850
0.0693485	-0.6592890
0.0346504	-0.6191820
0.0441619	-0.5916420
0.0688888	-0.6078040
0.0661297	-0.6639380
0.0120182	-0.7238810
-0.0801722	-0.7460130
-0.1697610	-0.7143340
-0.2189950	-0.6501420
-0.2210000	-0.5955710
-0.2042360	-0.5815410
-0.2101950	-0.6044060
-0.2612940	-0.6289450
-0.3433160	-0.6153520
-0.4156450	-0.5497390
-0.4414960	-0.4550730
-0.4152500	-0.3743240
-0.3662520	-0.3386320
-0.3362990	-0.3445940
-0.3479260	-0.3577860
-0.3875210	-0.3397450
-0.4159830	-0.2779080
-0.3987790	-0.1958290
-0.3326060	-0.1359810
-0.2484950	-0.1282010
-0.1890610	-0.1676590
-0.1771580	-0.2189530
-0.1996440	-0.2431360
-0.2184390	-0.2271530
-0.2004010	-0.1934240
-0.1433440	-0.1823760
-0.0784803	-0.2212420
-0.0475057	-0.3027590
-0.0716817	-0.3898750
-0.1363010	-0.4428380
-0.2022060	-0.4481620
-0.2355550	-0.4275770
-0.2332540	-0.4203260
-0.2248490	-0.4522840
-0.2495190	-0.5153680
-0.3256510	-0.5727740
-0.4360660	-0.5860770
-0.5400190	-0.5436300
-0.6028710	-0.4688430
-0.6209640	-0.4021500
-0.6229610	-0.3703960
-0.6467480	-0.3668460
-0.7094860	-0.3568840
-0.7935250	-0.3050100
-0.8588230	-0.2026320
-0.8724360	-0.0756137
-0.8327530	0.0341065
-0.7702130	0.0988750
-0.7240350	0.1247230
-0.7126560	0.1452130
-0.7202450	0.1945240
-0.7094300	0.2802270
-0.6505280	0.3763980
-0.5450810	0.4422480
-0.4259060	0.4521500
-0.3336420	0.4143480
-0.2875620	0.3642740
-0.2726770	0.3376140
-0.2527940	0.3435640
-0.1995010	0.3584920
-0.1150710	0.3447230
-0.0319379	0.2801420
0.0108490	0.1761670
-0.0036653	0.0704983
-0.0581414	0.0001599
-0.1144120	-0.0247734
-0.1423360	-0.0269595
-0.1421750	-0.0428296
-0.1435910	-0.0933590
-0.1821310	-0.1667580
-0.2710590	-0.2261860
-0.3898990	-0.2366240
-0.4983390	-0.1905690
-0.5649620	-0.1131580
-0.5890820	-0.0429288
-0.5992720	-0.0028595
-0.6298240	0.0163939
-0.6930680	0.0484333
-0.7685690	0.1244280
-0.8173560	0.2480740
-0.8103970	0.3911670
-0.7497970	0.5131390
-0.6667290	0.5897550
-0.5977600	0.6293160
-0.5575540	0.6642260
-0.5285840	0.7244350
-0.4755750	0.8129680
-0.3736380	0.9021020
-0.2287560	0.9530610
-0.0750833	0.9443270
0.0488612	0.8871660
0.1271240	0.8166940
0.1760590	0.7653460
0.2296410	0.7388500
0.3116130	0.7128650
0.4156240	0.6527410
0.5084280	0.5413410
0.5537070	0.3938310
0.5384840	0.2482320
0.4821980	0.1388910
0.4216500	0.0729144
0.3832990	0.0272979
0.3638880	-0.0312204
0.3340250	-0.1187380
0.2618900	-0.2200330
0.1390650	-0.2984000
-0.0111226	-0.3220240
-0.1490390	-0.2869580
-0.2463030	-0.2193650
-0.3046500	-0.1554320
-0.3519600	-0.1142230
-0.4185850	-0.0840126
-0.5120420	-0.0323781
-0.6092570	0.0676823
-0.6722660	0.2154540
-0.6754730	0.3809300
-0.6238680	0.5251440
-0.5485110	0.6270510
-0.4827730	0.6966800
-0.4373890	0.7647500
-0.3931650	0.8567460
-0.3168000	0.9712040
-0.1877320	1.0786700
-0.0156466	1.1421300
0.1646290	1.1434800
0.3169840	1.0960200
0.4286100	1.0336200
0.5168020	0.9848670
0.6129840	0.9517480
0.7361820	0.9090320
0.8761310	0.8246660
0.9988270	0.6857040
1.0703300	0.5100860
1.0808300	0.3353380
1.0508300	0.1927440
1.0148400	0.0864860
0.9950290	-0.0065815
0.9848220	-0.1164970
0.9547070	-0.2547030
0.8758900	-0.4028800
0.7437310	-0.5245670
0.5832330	-0.5908000
0.4324000	-0.6003800
0.3160750	-0.5795310
0.2299520	-0.5612910
0.1467670	-0.5603070
0.0398058	-0.5621210
-0.0941735	-0.5349720
-0.2300260	-0.4551190
-0.3310430	-0.3264290
-0.3748040	-0.1794080
-0.3685300	-0.0503908
-0.3424180	0.0433789
-0.3261000	0.1140090
-0.3260810	0.1909290
-0.3212420	0.2958280
-0.2797080	0.4236350
-0.1842610	0.5439840
-0.0469860	0.6220740
0.0979176	0.6431540
0.2177460	0.6221640
0.3034770	0.5913380
0.3738540	0.5752380
0.4584120	0.5721480
0.5724480	0.5558800
0.7029500	0.4965500
0.8161950	0.3845090
0.8812530	0.2393000
0.8916600	0.0968445
0.8689200	-0.0154473
0.8452900	-0.0968634
0.8389560	-0.1712240
0.8404010	-0.2661490
0.8202400	-0.3895850
0.7525040	-0.5214230
0.6356830	-0.6265850
0.4955920	-0.6796810
0.3678670	-0.6826270
0.2733410	-0.6619640
0.2048490	-0.6480160
0.1353310	-0.6517190
0.0409413	-0.6566530
