jMRUI Data Textfile

Filename: Cr.txt

PointsInDataset: 2048      
DatasetsInFile: 1         
SamplingInterval: 2.5E-1    
ZeroOrderPhase: 0E0       
BeginTime: 0E0       
TransmitterFrequency: 1.2322E8  
MagneticField: 2.9E0     
TypeOfNucleus: 0E0       
NameOfPatient: Cr
DateOfExperiment: 
Spectrometer: 
AdditionalInfo: Cr
SignalNames: Cr.txt;


Signal and FFT
sig(real)	sig(imag)	fft(real)	fft(imag)
Signal 1 out of 1 in file
5.1000000	-0.0000000
4.8865300	-1.2907900
4.3068800	-2.4215400
3.4698800	-3.2910100
2.4947700	-3.8712800
1.4661900	-4.1825500
0.4268550	-4.2474400
-0.5921420	-4.0621700
-1.5322700	-3.6071300
-2.2952800	-2.8876500
-2.7721400	-1.9713100
-2.8953300	-0.9893550
-2.6774000	-0.0958681
-2.2076700	0.5900750
-1.6085200	1.0212500
-0.9817600	1.2155000
-0.3815440	1.2146600
0.1711530	1.0427800
0.6491590	0.6960670
0.9904190	0.1710420
1.1066700	-0.4934210
0.9266880	-1.1960100
0.4437980	-1.7952800
-0.2677610	-2.1629200
-1.0809000	-2.2333300
-1.8696800	-2.0168700
-2.5526300	-1.5707700
-3.0977200	-0.9521660
-3.4912100	-0.1893900
-3.6994800	0.7080300
-3.6577300	1.7112100
-3.2978600	2.7388400
-2.5965000	3.6593500
-1.6075200	4.3324300
-0.4531930	4.6638100
0.7220660	4.6369100
1.8045700	4.3013600
2.7360400	3.7294000
3.4973600	2.9739600
4.0692300	2.0588300
4.4047600	1.0055200
4.4382800	-0.1280420
4.1261900	-1.2312200
3.4892900	-2.1649100
2.6236300	-2.8132600
1.6689000	-3.1287700
0.7542510	-3.1402900
-0.0424281	-2.9206100
-0.6967160	-2.5387200
-1.2051600	-2.0318600
-1.5476600	-1.4157900
-1.6768800	-0.7211770
-1.5449800	-0.0236897
-1.1478700	0.5605880
-0.5523820	0.9160400
0.1167430	0.9784800
0.7243000	0.7612430
1.1753100	0.3389410
1.4360800	-0.1981590
1.5150700	-0.7857210
1.4227600	-1.3942200
1.1445000	-2.0025700
0.6489260	-2.5614500
-0.0740836	-2.9795800
-0.9759660	-3.1483700
-1.9436300	-2.9908300
-2.8336800	-2.5012400
-3.5256300	-1.7475600
-3.9593200	-0.8354060
-4.1334200	0.1404510
-4.0709500	1.1230700
-3.7815400	2.0827200
-3.2509400	2.9816900
-2.4661400	3.7467800
-1.4557100	4.2753300
-0.3119470	4.4749300
0.8258600	4.3100700
1.8193700	3.8226800
2.5792800	3.1113900
3.0824500	2.2843600
3.3499100	1.4184300
3.4059300	0.5516170
3.2512900	-0.2904710
2.8715100	-1.0596300
2.2724100	-1.6731700
1.5134300	-2.0385400
0.7095560	-2.0992500
-0.0042669	-1.8693900
-0.5245080	-1.4310800
-0.8122500	-0.8958320
-0.8876850	-0.3564530
-0.7935370	0.1380320
-0.5571600	0.5702320
-0.1803800	0.9194770
0.3365240	1.1355400
0.9576230	1.1452000
1.5930000	0.8898460
2.1177800	0.3674760
2.4191200	-0.3523190
2.4404800	-1.1529300
2.1938900	-1.9189000
1.7344600	-2.5750900
1.1181200	-3.0920900
0.3750750	-3.4588500
-0.4824550	-3.6484100
-1.4268800	-3.6068000
-2.3855900	-3.2767500
-3.2421400	-2.6399200
-3.8724400	-1.7460200
-4.1934000	-0.7054580
-4.1915000	0.3515730
-3.9129800	1.3224600
-3.4251100	2.1549700
-2.7781300	2.8333600
-1.9954300	3.3433800
-1.0965500	3.6470800
-0.1316330	3.6894700
0.8034890	3.4340600
1.5879400	2.9004400
2.1213300	2.1743300
2.3639300	1.3800600
2.3443700	0.6323050
2.1308900	-0.0006705
1.7885600	-0.4996610
1.3533900	-0.8658460
0.8405220	-1.0867700
0.2761670	-1.1258300
-0.2752270	-0.9449670
-0.7141150	-0.5435440
-0.9414470	0.0171687
-0.9037830	0.6250960
-0.6168130	1.1592100
-0.1512860	1.5349300
0.4076830	1.7235000
0.9983590	1.7354800
1.5913200	1.5848000
2.1667000	1.2637400
2.6815400	0.7492290
3.0568000	0.0358549
3.1983400	-0.8308780
3.0400000	-1.7488500
2.5789100	-2.5892400
1.8781500	-3.2438800
1.0348100	-3.6589800
0.1365640	-3.8344400
-0.7633540	-3.7933300
-1.6374800	-3.5477200
-2.4531200	-3.0882400
-3.1473400	-2.4055200
-3.6313900	-1.5257200
-3.8252200	-0.5306020
-3.6988600	0.4567260
-3.2909400	1.3140400
-2.6907400	1.9629700
-1.9961400	2.3848600
-1.2766100	2.6014500
-0.5657340	2.6382600
0.1158310	2.4998800
0.7289730	2.1762200
1.2046300	1.6734800
1.4647400	1.0439200
1.4625500	0.3882340
1.2133900	-0.1755540
0.7928590	-0.5575810
0.3026620	-0.7260830
-0.1725640	-0.7029380
-0.5883240	-0.5311330
-0.9301680	-0.2403740
-1.1827100	0.1630350
-1.3055900	0.6757570
-1.2382700	1.2645700
-0.9327070	1.8496000
-0.3904790	2.3205400
0.3235260	2.5780600
1.1026100	2.5732700
1.8411700	2.3192000
2.4701500	1.8682800
2.9625900	1.2745100
3.3097600	0.5688540
3.4902200	-0.2348170
3.4591000	-1.1106200
3.1682300	-1.9940600
2.6032000	-2.7823900
1.8095100	-3.3661400
0.8863890	-3.6722700
-0.0492281	-3.6899200
-0.9052050	-3.4620900
-1.6351200	-3.0511900
-2.2264700	-2.5045500
-2.6695500	-1.8447000
-2.9341800	-1.0891300
-2.9747400	-0.2808840
-2.7609600	0.4974670
-2.3112700	1.1413200
-1.7021900	1.5641000
-1.0442300	1.7330700
-0.4391100	1.6765300
0.0535257	1.4585400
0.4189870	1.1404000
0.6622660	0.7568980
0.7772720	0.3225640
0.7364970	-0.1401500
0.5102250	-0.5764020
0.1007170	-0.9009240
-0.4358330	-1.0289600
-0.9986470	-0.9161790
-1.4793200	-0.5798780
-1.8024100	-0.0867878
-1.9433100	0.4831930
-1.9138900	1.0712200
-1.7304600	1.6483800
-1.3906200	2.1960300
-0.8779130	2.6767600
-0.1904520	3.0221300
0.6295190	3.1505200
1.4900900	3.0049700
2.2758500	2.5846900
2.8898900	1.9477800
3.2843000	1.1830800
3.4600200	0.3711460
3.4398600	-0.4387350
3.2375800	-1.2216200
2.8476700	-1.9495600
2.2635300	-2.5688300
1.5088000	-3.0030700
0.6555490	-3.1832300
-0.1877770	-3.0841900
-0.9136020	-2.7416000
-1.4535700	-2.2361900
-1.7930900	-1.6563800
-1.9545100	-1.0648600
-1.9642600	-0.4910830
-1.8301100	0.0486733
-1.5456800	0.5231830
-1.1175300	0.8752620
-0.5916430	1.0395000
-0.0561578	0.9776020
0.3857400	0.7058900
0.6561460	0.2940160
0.7293660	-0.1652210
0.6283490	-0.5945790
0.3957610	-0.9535850
0.0627972	-1.2301700
-0.3607700	-1.4131900
-0.8692150	-1.4704400
-1.4318500	-1.3520300
-1.9777000	-1.0186800
-2.4093100	-0.4745990
-2.6391400	0.2200590
-2.6248600	0.9679710
-2.3798900	1.6728300
-1.9536700	2.2714000
-1.3976900	2.7391400
-0.7428170	3.0692700
-0.0037201	3.2450100
0.7957260	3.2291900
1.5985700	2.9812700
2.3144700	2.4899600
2.8471800	1.7965500
3.1327000	0.9899240
3.1625400	0.1746910
2.9766500	-0.5668060
2.6328000	-1.1936800
2.1753400	-1.6965100
1.6256900	-2.0695600
0.9993280	-2.2894800
0.3328690	-2.3188400
-0.3028620	-2.1328100
-0.8177260	-1.7487800
-1.1374100	-1.2350800
-1.2353600	-0.6899370
-1.1394900	-0.2034580
-0.9099170	0.1723090
-0.6044030	0.4265120
-0.2564030	0.5671710
0.1200560	0.5933900
0.5056870	0.4852750
0.8538380	0.2201600
1.0915100	-0.1973720
1.1462200	-0.7157800
0.9812880	-1.2444100
0.6149490	-1.6861300
0.1097960	-1.9735700
-0.4595290	-2.0855600
-1.0373300	-2.0347300
-1.5955400	-1.8388300
-2.1168200	-1.4994900
-2.5686300	-1.0054400
-2.8917500	-0.3573120
-3.0154400	0.4060300
-2.8906000	1.2021900
-2.5178900	1.9280500
-1.9505300	2.4970800
-1.2694300	2.8667600
-0.5481840	3.0389800
0.1680160	3.0361200
0.8568720	2.8730700
1.4948500	2.5473400
2.0365200	2.0544800
2.4165200	1.4156300
2.5756000	0.6940620
2.4929500	-0.0150374
2.2015000	-0.6173080
1.7742500	-1.0534600
1.2910200	-1.3125700
0.8082610	-1.4174600
0.3517140	-1.3951600
-0.0661332	-1.2560000
-0.4208240	-0.9968260
-0.6654260	-0.6244690
-0.7454890	-0.1794860
-0.6300460	0.2609640
-0.3360910	0.6066810
0.0721875	0.7901540
0.5101020	0.7907660
0.9071280	0.6319800
1.2263800	0.3556180
1.4577100	-0.0063924
1.5933300	-0.4417130
1.6077500	-0.9428450
1.4599400	-1.4815200
1.1178500	-1.9947000
0.5875100	-2.3962800
-0.0756518	-2.6091100
-0.7831720	-2.5964400
-1.4475200	-2.3716700
-2.0110400	-1.9810400
-2.4515700	-1.4731500
-2.7640500	-0.8781500
-2.9356400	-0.2108240
-2.9356900	0.5071510
-2.7301400	1.2258200
-2.3101800	1.8660800
-1.7130400	2.3436000
-1.0180500	2.6025600
-0.3184900	2.6365900
0.3123770	2.4828400
0.8388660	2.1947100
1.2543900	1.8135900
1.5567100	1.3597100
1.7284100	0.8466060
1.7391800	0.3052210
1.5690100	-0.2039930
1.2343500	-0.6036470
0.7962600	-0.8302600
0.3420540	-0.8626600
-0.0484392	-0.7282960
-0.3298480	-0.4835560
-0.4945010	-0.1827770
-0.5527320	0.1419150
-0.5077740	0.4769720
-0.3460180	0.8057490
-0.0506711	1.0885500
0.3718980	1.2628900
0.8744590	1.2667700
1.3754900	1.0699000
1.7879200	0.6908710
2.0515800	0.1880500
2.1481600	-0.3691740
2.0905900	-0.9284530
1.8973700	-1.4628900
1.5730900	-1.9564900
1.1104500	-2.3810600
0.5118270	-2.6854700
-0.1873580	-2.8084200
-0.9135530	-2.7075800
-1.5749200	-2.3846200
-2.0944500	-1.8880500
-2.4346500	-1.2912400
-2.5982600	-0.6610910
-2.6071200	-0.0387030
-2.4768800	0.5563060
-2.2074400	1.1044900
-1.7960000	1.5678100
-1.2613400	1.8907000
-0.6587820	2.0225900
-0.0716499	1.9465400
0.4175640	1.6930000
0.7577020	1.3280300
0.9411270	0.9236700
0.9909000	0.5307120
0.9343910	0.1716040
0.7840050	-0.1443790
0.5392690	-0.3985080
0.2072880	-0.5526200
-0.1761050	-0.5616940
-0.5433150	-0.4010070
-0.8154710	-0.0879456
-0.9340520	0.3183810
-0.8826350	0.7407010
-0.6847050	1.1146300
-0.3807920	1.4065100
-0.0029006	1.6077400
0.4348550	1.7131700
0.9237620	1.7027800
1.4378900	1.5429000
1.9213300	1.2074200
2.2980400	0.7035030
2.5000300	0.0819129
2.4953600	-0.5772390
2.2971300	-1.1946900
1.9483000	-1.7181500
1.4943700	-2.1277500
0.9642630	-2.4200300
0.3724150	-2.5854800
-0.2617960	-2.5990300
-0.8948600	-2.4321600
-1.4578500	-2.0780000
-1.8771300	-1.5700100
-2.1043000	-0.9787580
-2.1349000	-0.3871800
-2.0035100	0.1398030
-1.7594800	0.5713090
-1.4413700	0.9033210
-1.0681600	1.1366200
-0.6516300	1.2589100
-0.2177660	1.2460800
0.1820570	1.0823100
0.4816310	0.7832360
0.6269580	0.4034890
0.6015180	0.0207219
0.4321440	-0.2943230
0.1716670	-0.5020870
-0.1288680	-0.5974780
-0.4387110	-0.5924900
-0.7447780	-0.4935500
-1.0326300	-0.2921470
-1.2684800	0.0236983
-1.3988000	0.4463220
-1.3705700	0.9325260
-1.1587600	1.4090500
-0.7818440	1.7979000
-0.2939440	2.0452800
0.2407710	2.1353500
0.7734400	2.0809700
1.2786000	1.9008700
1.7416700	1.6017300
2.1383600	1.1792700
2.4246400	0.6369840
2.5474800	0.0068390
2.4703900	-0.6457830
2.1957700	-1.2393800
1.7676300	-1.7056900
1.2522700	-2.0118500
0.7102570	-2.1614200
0.1786900	-2.1756600
-0.3254310	-2.0706600
-0.7863920	-1.8482500
-1.1727300	-1.5069200
-1.4375300	-1.0632800
-1.5379300	-0.5655600
-1.4604100	-0.0865062
-1.2332300	0.3019670
-0.9161920	0.5559390
