jMRUI Data Textfile

Filename: Glu.txt

PointsInDataset: 2048      
DatasetsInFile: 1         
SamplingInterval: 2.5E-1    
ZeroOrderPhase: 0E0       
BeginTime: 0E0       
TransmitterFrequency: 1.2322E8  
MagneticField: 2.9E0     
TypeOfNucleus: 0E0       
NameOfPatient: Glu
DateOfExperiment: 
Spectrometer: 
AdditionalInfo: Glu
SignalNames: Glu.txt;


Signal and FFT
sig(real)	sig(imag)	fft(real)	fft(imag)
Signal 1 out of 1 in file
3.9811700	-0.0748989
3.5405900	-1.6882900
2.4409100	-2.9000900
0.9693230	-3.4648600
-0.5227520	-3.3206600
-1.7254500	-2.5772700
-2.4378100	-1.4531900
-2.5821400	-0.2028540
-2.1837500	0.9332470
-1.3467300	1.7503400
-0.2427900	2.0922500
0.8957310	1.8761200
1.8023200	1.1291500
2.2359600	0.0128164
2.0598300	-1.1959300
1.3010500	-2.1770500
0.1538550	-2.6697200
-1.0835000	-2.5580200
-2.1106600	-1.8985000
-2.7170100	-0.8801980
-2.8236500	0.2554370
-2.4683600	1.2899900
-1.7590700	2.0665500
-0.8323120	2.4900100
0.1632980	2.5134900
1.0670100	2.1374200
1.7144100	1.4266000
1.9717000	0.5251270
1.7872000	-0.3586180
1.2283100	-1.0074900
0.4730870	-1.2716300
-0.2499860	-1.1249300
-0.7465360	-0.6688050
-0.9212730	-0.0803817
-0.7911980	0.4643480
-0.4477780	0.8492690
0.0008202	1.0317700
0.4693030	1.0168600
0.8984240	0.8223450
1.2340700	0.4655440
1.4122200	-0.0213688
1.3718000	-0.5676250
1.0907400	-1.0614500
0.6172850	-1.3827800
0.0671182	-1.4560600
-0.4203520	-1.2887400
-0.7431080	-0.9673000
-0.8771670	-0.6105880
-0.8715310	-0.3096040
-0.8031740	-0.0919440
-0.7246700	0.0688554
-0.6401160	0.2109270
-0.5225130	0.3427860
-0.3547050	0.4339420
-0.1595220	0.4422670
0.0052526	0.3544600
0.0832454	0.2063410
0.0587082	0.0659233
-0.0322322	-0.0085940
-0.1274890	-0.0040865
-0.1825360	0.0458364
-0.1981770	0.0938031
-0.2111360	0.1204580
-0.2546730	0.1519780
-0.3200470	0.2384420
-0.3500030	0.4081760
-0.2720690	0.6324140
-0.0494914	0.8282820
0.2862380	0.9007080
0.6449070	0.7957020
0.9230530	0.5292850
1.0543900	0.1741360
1.0323500	-0.1838780
0.8936470	-0.4870160
0.6808970	-0.7171420
0.4156900	-0.8746910
0.1028660	-0.9481760
-0.2405400	-0.9040490
-0.5596780	-0.7092380
-0.7667650	-0.3707500
-0.7805840	0.0399276
-0.5767960	0.4018000
-0.2139380	0.5954070
0.1855790	0.5600390
0.4900720	0.3212950
0.6154710	-0.0273307
0.5508390	-0.3745450
0.3419070	-0.6391800
0.0510080	-0.7873960
-0.2745020	-0.8158690
-0.6044070	-0.7232160
-0.9037890	-0.4984350
-1.1132900	-0.1382780
-1.1564200	0.3211680
-0.9766250	0.7885250
-0.5806880	1.1378900
-0.0557321	1.2607900
0.4575360	1.1192000
0.8232880	0.7655820
0.9665780	0.3166840
0.8943740	-0.1020510
0.6731270	-0.4065460
0.3832450	-0.5704050
0.0834724	-0.6053090
-0.1937440	-0.5286220
-0.4213490	-0.3473690
-0.5570060	-0.0707373
-0.5470720	0.2627930
-0.3578760	0.5720680
-0.0121517	0.7531440
0.3998340	0.7263290
0.7493650	0.4813710
0.9252320	0.0895146
0.8831680	-0.3279890
0.6586720	-0.6562370
0.3376690	-0.8330740
0.0073351	-0.8591990
-0.2795480	-0.7720630
-0.5065820	-0.6083800
-0.6688340	-0.3849310
-0.7476320	-0.1096610
-0.7097630	0.1910040
-0.5340210	0.4566560
-0.2438330	0.6083950
0.0830345	0.5894940
0.3413280	0.4037230
0.4483010	0.1224330
0.3850690	-0.1479090
0.2020170	-0.3183910
-0.0146683	-0.3569610
-0.1918060	-0.2906600
-0.3006590	-0.1734760
-0.3528600	-0.0460869
-0.3696110	0.0829303
-0.3519740	0.2234950
-0.2771200	0.3731420
-0.1232930	0.4973880
0.0977419	0.5405600
0.3291740	0.4615980
0.4917320	0.2683870
0.5274040	0.0233017
0.4341420	-0.1871500
0.2666090	-0.2993800
0.1018980	-0.3046870
-0.0059446	-0.2450130
-0.0513033	-0.1774360
-0.0665525	-0.1343370
-0.0866367	-0.1079170
-0.1173230	-0.0682510
-0.1315620	0.0017441
-0.0957644	0.0834735
-0.0042098	0.1310050
0.1067580	0.1048930
0.1776540	0.0054365
0.1651770	-0.1210520
0.0729823	-0.2094340
-0.0493866	-0.2175760
-0.1393610	-0.1526730
-0.1624060	-0.0630928
-0.1316960	-0.0021750
-0.0928938	0.0090740
-0.0864837	-0.0068672
-0.1165010	-0.0062361
-0.1490160	0.0383908
-0.1407820	0.1142810
-0.0754849	0.1768180
0.0206345	0.1834180
0.0961005	0.1269750
0.1115470	0.0429960
0.0687799	-0.0154011
0.0093814	-0.0160269
-0.0163248	0.0293039
0.0132989	0.0745643
0.0754939	0.0748125
0.1208520	0.0204162
0.1110590	-0.0555144
0.0481508	-0.1019650
-0.0266746	-0.0882958
-0.0636549	-0.0271053
-0.0412840	0.0354034
0.0183524	0.0540652
0.0670506	0.0181220
0.0672595	-0.0417939
0.0201627	-0.0780456
-0.0361308	-0.0629436
-0.0566863	-0.0100388
-0.0250309	0.0364468
0.0333797	0.0359760
0.0699193	-0.0163533
0.0496884	-0.0846832
-0.0213547	-0.1182270
-0.0996277	-0.0887594
-0.1352420	-0.0116298
-0.1079850	0.0654356
-0.0411042	0.0972408
0.0171608	0.0734893
0.0300732	0.0244800
-0.0007367	-0.0037273
-0.0381602	0.0145259
-0.0396954	0.0646107
0.0084509	0.1030650
0.0793788	0.0915532
0.1248900	0.0273847
0.1116480	-0.0527787
0.0467258	-0.0990510
-0.0268644	-0.0847300
-0.0613986	-0.0256235
-0.0390063	0.0321730
0.0162979	0.0467365
0.0579120	0.0110222
0.0524317	-0.0431802
0.0047619	-0.0707020
-0.0463484	-0.0482848
-0.0587414	0.0072064
-0.0199595	0.0514838
0.0422459	0.0467830
0.0801058	-0.0087425
0.0615436	-0.0785390
-0.0055360	-0.1140870
-0.0786947	-0.0904159
-0.1120160	-0.0240519
-0.0893883	0.0399333
-0.0350826	0.0617838
0.0060214	0.0361753
0.0032686	-0.0052882
-0.0364511	-0.0197700
-0.0745616	0.0127238
-0.0712548	0.0729885
-0.0172407	0.1165580
0.0575156	0.1074560
0.1049520	0.0461963
0.0941993	-0.0292769
0.0345101	-0.0706094
-0.0313816	-0.0538777
-0.0584493	0.0037387
-0.0317111	0.0576946
0.0243550	0.0695825
0.0659393	0.0350390
0.0638834	-0.0147955
0.0255463	-0.0388964
-0.0119715	-0.0191271
-0.0118350	0.0250809
0.0324423	0.0514970
0.0900962	0.0281483
0.1150550	-0.0405418
0.0804448	-0.1146650
-0.0002876	-0.1465660
-0.0816624	-0.1149400
-0.1178770	-0.0399961
-0.0944718	0.0314546
-0.0366710	0.0596201
0.0112240	0.0389277
0.0193340	-0.0011513
-0.0068556	-0.0214561
-0.0336180	-0.0047084
-0.0281020	0.0311044
0.0134374	0.0477816
0.0604546	0.0187168
0.0704709	-0.0472275
0.0222971	-0.1086490
-0.0651484	-0.1199680
-0.1431600	-0.0644867
-0.1656900	0.0323925
-0.1203550	0.1197260
-0.0355003	0.1552340
0.0412826	0.1321320
0.0767195	0.0794594
0.0724528	0.0368469
0.0580387	0.0237199
0.0629261	0.0265843
0.0899412	0.0137020
0.1113670	-0.0348572
0.0910730	-0.1058100
0.0158185	-0.1574690
-0.0887074	-0.1483040
-0.1704310	-0.0683959
-0.1839780	0.0498594
-0.1206810	0.1504010
-0.0138799	0.1885180
0.0839883	0.1572950
0.1354920	0.0871688
0.1387720	0.0203237
0.1206770	-0.0199380
0.1095490	-0.0418071
0.1098420	-0.0710221
0.0987601	-0.1225740
0.0475395	-0.1813880
-0.0495101	-0.2083430
-0.1616740	-0.1682850
-0.2361610	-0.0592553
-0.2311370	0.0796119
-0.1439950	0.1887400
-0.0143113	0.2235010
0.1007940	0.1796220
0.1612450	0.0912513
0.1641590	0.0043798
0.1364880	-0.0539850
0.1078460	-0.0883380
0.0855666	-0.1210840
0.0514677	-0.1652960
-0.0177318	-0.2066120
-0.1231830	-0.2096850
-0.2324580	-0.1451810
-0.2946830	-0.0168304
-0.2726910	0.1329180
-0.1691260	0.2446250
-0.0271511	0.2765970
0.0952879	0.2284100
0.1595930	0.1370570
0.1651840	0.0494843
0.1407680	-0.0078438
0.1166800	-0.0404225
0.1003900	-0.0713657
0.0739009	-0.1142120
0.0142735	-0.1553860
-0.0797546	-0.1609530
-0.1770560	-0.1031080
-0.2292840	0.0139183
-0.2019790	0.1491470
-0.0990376	0.2464180
0.0377173	0.2676600
0.1540250	0.2143960
0.2155970	0.1225370
0.2245190	0.0351448
0.2089950	-0.0262527
0.1957540	-0.0708459
0.1870660	-0.1226150
0.1601440	-0.1929580
0.0890859	-0.2641560
-0.0281426	-0.2974650
-0.1593490	-0.2604990
-0.2536560	-0.1534330
-0.2725780	-0.0139147
-0.2143230	0.1038180
-0.1137730	0.1610210
-0.0184804	0.1549190
0.0414463	0.1136350
0.0677044	0.0707302
0.0829731	0.0394934
0.1047880	0.0066250
0.1255380	-0.0504288
0.1150430	-0.1367820
0.0445025	-0.2258790
-0.0862522	-0.2703270
-0.2395210	-0.2313470
-0.3568850	-0.1059510
-0.3916830	0.0679503
-0.3344200	0.2324580
-0.2139360	0.3418300
-0.0749793	0.3834450
0.0503000	0.3742320
0.1559410	0.3378680
0.2523150	0.2821740
0.3428550	0.1950500
0.4079310	0.0620161
0.4107910	-0.1092050
0.3230230	-0.2780660
0.1510420	-0.3856430
-0.0570610	-0.3864100
-0.2314730	-0.2760330
-0.3153950	-0.0958047
-0.2918740	0.0894523
-0.1858980	0.2247480
-0.0427128	0.2872600
0.1002230	0.2846230
0.2272670	0.2345120
0.3366240	0.1442940
0.4203080	0.0079991
0.4516210	-0.1771760
0.3936010	-0.3893620
0.2247980	-0.5754080
-0.0362182	-0.6687380
-0.3273570	-0.6227340
-0.5662620	-0.4380820
-0.6872530	-0.1654180
-0.6690830	0.1188780
-0.5370870	0.3478600
-0.3412570	0.4878380
-0.1277320	0.5381740
0.0762901	0.5125270
0.2566570	0.4198120
0.3951500	0.2613100
0.4598260	0.0455083
0.4150340	-0.1936120
0.2466040	-0.3936410
-0.0162338	-0.4842430
-0.3008460	-0.4211820
-0.5174310	-0.2123150
-0.5974810	0.0822073
-0.5215400	0.3765580
-0.3204870	0.5960820
-0.0525657	0.7021020
0.2260990	0.6924470
0.4778060	0.5834020
0.6791780	0.3910800
0.8063410	0.1279370
0.8272420	-0.1843920
0.7122860	-0.4999320
0.4581680	-0.7485880
0.1067850	-0.8584890
-0.2582240	-0.7897790
-0.5402590	-0.5585280
-0.6690210	-0.2340640
-0.6274420	0.0900666
-0.4513510	0.3342560
-0.2049580	0.4579390
0.0497759	0.4599650
0.2703840	0.3603400
0.4309230	0.1812410
0.5084110	-0.0574701
0.4759470	-0.3273330
0.3128900	-0.5786180
0.0266261	-0.7425860
-0.3316640	-0.7543300
-0.6734410	-0.5850340
-0.9030960	-0.2628610
-0.9566700	0.1329480
-0.8266100	0.5032730
-0.5587550	0.7677400
-0.2256950	0.8888930
0.1049270	0.8710740
0.3879220	0.7408000
0.5975270	0.5267020
0.7136890	0.2540030
0.7146780	-0.0458141
0.5859690	-0.3235220
0.3398600	-0.5148260
0.0288493	-0.5621620
-0.2622800	-0.4444080
-0.4463950	-0.1945650
-0.4703870	0.1086330
-0.3364870	0.3725150
-0.0961434	0.5275690
0.1781840	0.5486840
0.4243760	0.4509920
0.6064660	0.2681360
0.7094490	0.0313853
0.7236610	-0.2357560
0.6358970	-0.5072500
0.4370090	-0.7421170
0.1404130	-0.8856820
-0.2050720	-0.8892420
-0.5224940	-0.7372100
-0.7344530	-0.4626840
-0.7960630	-0.1384950
-0.7128740	0.1529520
-0.5328380	0.3532760
-0.3186030	0.4453190
-0.1188790	0.4459550
0.0435253	0.3834450
0.1630190	0.2778030
0.2334910	0.1380650
0.2389070	-0.0244497
0.1616160	-0.1811520
0.0022766	-0.2854770
