jMRUI Data Textfile

Filename: NAAG.txt

PointsInDataset: 2048      
DatasetsInFile: 1         
SamplingInterval: 2.5E-1    
ZeroOrderPhase: 0E0       
BeginTime: 0E0       
TransmitterFrequency: 1.2322E8  
MagneticField: 2.9E0     
TypeOfNucleus: 0E0       
NameOfPatient: NAAG
DateOfExperiment: 
Spectrometer: 
AdditionalInfo: NAAG
SignalNames: NAAG.txt;


Signal and FFT
sig(real)	sig(imag)	fft(real)	fft(imag)
Signal 1 out of 1 in file
8.7623700	-0.2240740
7.7494500	-3.7291200
5.2448600	-6.3191200
1.8901800	-7.4136200
-1.4931600	-6.8298900
-4.1282300	-4.7990500
-5.4664400	-1.8699100
-5.2869400	1.2490600
-3.7089300	3.8545200
-1.1400900	5.3854300
1.8140300	5.5227000
4.4675900	4.2506800
6.1945200	1.8722000
6.5758800	-1.0407600
5.5188900	-3.7719100
3.3002400	-5.6441400
0.5013060	-6.2100200
-2.1563000	-5.3806600
-4.0212900	-3.4416200
-4.6927300	-0.9502080
-4.1079900	1.4417200
-2.5202400	3.1695000
-0.3940430	3.8826500
1.7294700	3.4937800
3.3536500	2.1619300
4.1155400	0.2383210
3.8461500	-1.8063400
2.6064300	-3.4700600
0.6901480	-4.3253800
-1.4251700	-4.1305100
-3.1888900	-2.9125100
-4.1300300	-0.9807300
-4.0021900	1.1516100
-2.8618700	2.9200500
-1.0450300	3.8805300
0.9481420	3.8335600
2.6101300	2.8583600
3.5623900	1.2576000
3.6294200	-0.5491260
2.8460100	-2.1352400
1.4211600	-3.1500900
-0.3141590	-3.3715300
-1.9640600	-2.7397900
-3.1355200	-1.3783000
-3.5226400	0.4108410
-2.9950400	2.1968400
-1.6567400	3.5230000
0.1615280	4.0392000
1.9899100	3.6149500
3.3617400	2.3827900
3.9549500	0.6904730
3.6765700	-1.0167300
2.6631500	-2.3315100
1.2117800	-2.9849400
-0.3170800	-2.8857600
-1.5842000	-2.1073900
-2.3265800	-0.8498630
-2.3900200	0.6010600
-1.7537500	1.9159400
-0.5488110	2.7765700
0.9469920	2.9496800
2.3587000	2.3631900
3.3114200	1.1499000
3.5471600	-0.3741580
3.0129000	-1.8016000
1.8775400	-2.7635300
0.4686050	-3.0432600
-0.8412670	-2.6275900
-1.7466600	-1.6830700
-2.0777000	-0.4813770
-1.8123700	0.6843990
-1.0507500	1.5609400
0.0208390	1.9674300
1.1605200	1.8140600
2.1021600	1.1205000
2.6019100	0.0306626
2.5031500	-1.1965100
1.7991200	-2.2396200
0.6583730	-2.8073100
-0.6131760	-2.7379800
-1.6684500	-2.0606000
-2.2354400	-0.9842590
-2.2019700	0.1800290
-1.6344400	1.1275500
-0.7313720	1.6490800
0.2556140	1.6691800
1.0931900	1.2341200
1.6071600	0.4746180
1.6964700	-0.4294650
1.3390900	-1.2736800
0.6020110	-1.8535700
-0.3521150	-2.0042600
-1.2827900	-1.6540000
-1.9284200	-0.8683770
-2.0914900	0.1469890
-1.7164000	1.1019400
-0.9187170	1.7200300
0.0539547	1.8368600
0.9132740	1.4525800
1.4301500	0.7169000
1.4988100	-0.1387550
1.1448700	-0.8832970
0.4897720	-1.3448500
-0.2976480	-1.4325300
-1.0377400	-1.1330500
-1.5611400	-0.5033840
-1.7286400	0.3304660
-1.4631600	1.1788100
-0.7887280	1.8171000
0.1478510	2.0462500
1.0991900	1.7673400
1.7894000	1.0338800
2.0110800	0.0482355
1.7026700	-0.9042080
0.9682290	-1.5556200
0.0318954	-1.7443100
-0.8467690	-1.4535600
-1.4540500	-0.7929730
-1.6678300	0.0555069
-1.4629500	0.8932170
-0.8942750	1.5408800
-0.0796980	1.8570000
0.8104850	1.7545700
1.5697100	1.2263400
1.9933100	0.3699810
1.9399200	-0.6111280
1.3932600	-1.4510200
0.4891120	-1.9037600
-0.5167680	-1.8331700
-1.3335300	-1.2664600
-1.7364300	-0.3836150
-1.6382000	0.5518610
-1.1019000	1.2855800
-0.2993800	1.6456600
0.5548510	1.5720000
1.2605100	1.1054200
1.6633300	0.3595570
1.6686100	-0.5035250
1.2530800	-1.2912400
0.4817760	-1.8049600
-0.4818680	-1.8837800
-1.3952400	-1.4618800
-1.9965500	-0.6132750
-2.0917600	0.4478740
-1.6311100	1.4251000
-0.7360230	2.0375600
0.3403830	2.1158100
1.3013800	1.6526300
1.9020400	0.7906900
2.0119100	-0.2380990
1.6283500	-1.1865600
0.8525480	-1.8482100
-0.1464950	-2.0851100
-1.1619600	-1.8385100
-1.9740600	-1.1378200
-2.3831400	-0.1102950
-2.2585500	1.0230500
-1.5915600	1.9845400
-0.5236880	2.5132400
0.6760520	2.4525400
1.6882200	1.8120900
2.2466100	0.7710910
2.2236900	-0.3823670
1.6610300	-1.3485500
0.7375840	-1.9058700
-0.3008940	-1.9588000
-1.2143100	-1.5366600
-1.8161700	-0.7614730
-1.9937800	0.1893370
-1.7148700	1.1117500
-1.0341900	1.8006600
-0.0983460	2.0850200
0.8676440	1.8756400
1.6071700	1.2090000
1.9082500	0.2587240
1.6810200	-0.7051490
0.9982390	-1.4020300
0.0741715	-1.6375900
-0.8117580	-1.3677700
-1.4116600	-0.7026150
-1.5831700	0.1458810
-1.3144000	0.9410990
-0.7026440	1.4878500
0.0891993	1.6670600
0.8733980	1.4427600
1.4660400	0.8582580
1.7117000	0.0330482
1.5158100	-0.8442640
0.8831050	-1.5428900
-0.0570713	-1.8460900
-1.0641000	-1.6252100
-1.8485100	-0.8996710
-2.1665300	0.1513070
-1.9071900	1.2390500
-1.1320100	2.0599800
-0.0502404	2.3932700
1.0551100	2.1611400
1.9139200	1.4340000
2.3334600	0.3916560
2.2267300	-0.7316300
1.6129500	-1.6950900
0.6074610	-2.2868000
-0.5907790	-2.3554100
-1.7212600	-1.8461200
-2.5070600	-0.8338150
-2.7251800	0.4682580
-2.2827100	1.7454400
-1.2640900	2.6651200
0.0797675	2.9802100
1.4040700	2.6098800
2.3768200	1.6621000
2.7753700	0.3907970
2.5366100	-0.8889450
1.7510500	-1.8886900
0.6181080	-2.4069400
-0.6093780	-2.3538000
-1.6724200	-1.7517400
-2.3437500	-0.7273590
-2.4653500	0.5021880
-1.9891000	1.6582500
-1.0078300	2.4560300
0.2463010	2.6817600
1.4523100	2.2660700
2.2925200	1.3184900
2.5530800	0.1001990
2.1904900	-1.0591200
1.3359400	-1.8660300
0.2399310	-2.1462500
-0.8130200	-1.8767700
-1.5818700	-1.1665200
-1.9146600	-0.2080120
-1.7615300	0.7735280
-1.1698100	1.5596900
-0.2742620	1.9706700
0.7181010	1.8985800
1.5601700	1.3423000
2.0215500	0.4280740
1.9600800	-0.6058360
1.3794400	-1.4701800
0.4412730	-1.9162100
-0.5820670	-1.8209500
-1.3983400	-1.2278700
-1.7910200	-0.3251290
-1.6798700	0.6255450
-1.1271700	1.3742900
-0.2987630	1.7476600
0.5928640	1.6757100
1.3383800	1.1883500
1.7654200	0.3982150
1.7632400	-0.5181010
1.3070600	-1.3434200
0.4793830	-1.8586000
-0.5280250	-1.8996800
-1.4492000	-1.4184700
-2.0173300	-0.5177610
-2.0537400	0.5646170
-1.5342300	1.5256400
-0.6010630	2.0956900
0.4860640	2.1242700
1.4367200	1.6184600
2.0157400	0.7249300
2.0968900	-0.3267410
1.6753700	-1.2890400
0.8511130	-1.9472700
-0.1982180	-2.1515400
-1.2453000	-1.8385000
-2.0466500	-1.0498400
-2.3901700	0.0582697
-2.1544800	1.2310200
-1.3606000	2.1685800
-0.1874720	2.6103900
1.0672600	2.4213500
2.0741300	1.6418900
2.5739000	0.4774300
2.4531200	-0.7689740
1.7653500	-1.7906300
0.6980900	-2.3590200
-0.4911340	-2.3676000
-1.5395500	-1.8356400
-2.2268700	-0.8875850
-2.4061100	0.2748180
-2.0264400	1.4026300
-1.1518800	2.2384800
0.0339890	2.5704800
1.2538100	2.2938100
2.2004800	1.4566000
2.6257500	0.2628150
2.4204600	-0.9799610
1.6508600	-1.9531000
0.5339160	-2.4235200
-0.6366160	-2.3055700
-1.5796300	-1.6682600
-2.0962500	-0.6953580
-2.1012700	0.3754930
-1.6206400	1.3082100
-0.7722870	1.9069700
0.2566460	2.0427500
1.2360000	1.6765400
1.9311300	0.8787830
2.1577200	-0.1683910
1.8408900	-1.2024100
1.0526400	-1.9480900
0.0029797	-2.2029000
-1.0206400	-1.9051000
-1.7447000	-1.1534200
-1.9938900	-0.1692530
-1.7348500	0.7799220
-1.0677300	1.4611100
-0.1798330	1.7299300
0.7116800	1.5477700
1.4060800	0.9716000
1.7492000	0.1336150
1.6549600	-0.7800520
1.1257100	-1.5554600
0.2669030	-1.9909100
-0.7192330	-1.9511900
-1.5748200	-1.4193800
-2.0590800	-0.5198720
-2.0282900	0.5075370
-1.4880700	1.3797000
-0.5927440	1.8611100
0.4085140	1.8357100
1.2534000	1.3320300
1.7408600	0.4982880
1.7727300	-0.4523660
1.3589500	-1.2993400
0.5996740	-1.8569300
-0.3392980	-2.0006000
-1.2517500	-1.6857100
-1.9227300	-0.9635500
-2.1735300	0.0130008
-1.9151500	1.0093300
-1.1902200	1.7631500
-0.1779070	2.0624600
0.8508670	1.8182300
1.6166500	1.0986400
1.9202700	0.1072690
1.7004900	-0.8858380
1.0400300	-1.6290700
0.1253520	-1.9558100
-0.8151740	-1.8131000
-1.5677900	-1.2548300
-1.9710100	-0.4163060
-1.9369400	0.5150010
-1.4651700	1.3287200
-0.6515450	1.8272500
0.3172900	1.8717600
1.1967000	1.4294100
1.7467800	0.6002550
1.8082800	-0.3974640
1.3607000	-1.2882800
0.5339280	-1.8270100
-0.4347670	-1.8771300
-1.2802400	-1.4477600
-1.7908100	-0.6775620
-1.8603100	0.2201240
-1.4987000	1.0226400
-0.8107150	1.5490500
0.0382072	1.6882100
0.8548480	1.4103000
1.4488200	0.7712690
1.6673000	-0.0889645
1.4353700	-0.9637510
0.7903700	-1.6222800
-0.1101760	-1.8742900
-1.0226600	-1.6359200
-1.6893900	-0.9667280
-1.9227000	-0.0564594
-1.6659400	0.8365290
-1.0056200	1.4695600
-0.1336840	1.6871900
0.7186950	1.4544500
1.3456900	0.8482770
1.6088600	0.0226438
1.4538900	-0.8319280
0.9117000	-1.5229600
0.0935181	-1.8861200
-0.8207730	-1.8172800
-1.6101600	-1.3055700
-2.0621400	-0.4542860
-2.0362900	0.5290070
-1.5181300	1.3823400
-0.6359230	1.8678000
0.3733110	1.8489300
1.2379200	1.3339800
1.7355000	0.4676300
1.7528800	-0.5217160
1.3035900	-1.3925600
0.5065150	-1.9501700
-0.4549200	-2.0802800
-1.3739100	-1.7587600
-2.0540000	-1.0488100
-2.3395100	-0.0929670
-2.1480700	0.9034380
-1.5011000	1.7067800
-0.5368310	2.1104000
0.5111370	1.9977900
1.3734200	1.3880600
1.8254900	0.4391890
1.7576600	-0.5978470
1.2050600	-1.4572500
0.3271360	-1.9365000
-0.6497370	-1.9446500
-1.4988000	-1.5089900
-2.0436500	-0.7493410
-2.1837200	0.1602050
-1.9008900	1.0265400
-1.2579100	1.6668400
-0.3926310	1.9380900
0.4987820	1.7703200
1.1989900	1.1956700
1.5260800	0.3559350
1.3928400	-0.5260750
0.8421740	-1.2099100
0.0382721	-1.5137900
-0.7868300	-1.3722000
-1.4093600	-0.8501780
-1.6803300	-0.1115340
-1.5579100	0.6406060
-1.1009000	1.2229000
-0.4372550	1.5104000
0.2728540	1.4509600
0.8673390	1.0647400
1.2067600	0.4389080
1.1998300	-0.2815770
0.8311560	-0.9151350
0.1806520	-1.2838100
-0.5821860	-1.2673400
-1.2389900	-0.8511510
-1.5901300	-0.1432390
-1.5233500	0.6540030
-1.0531900	1.3091700
-0.3136060	1.6374400
0.4909510	1.5548100
1.1516700	1.0923900
1.5111500	0.3732100
1.4926000	-0.4301400
1.1036000	-1.1372200
0.4261380	-1.5912500
-0.3979340	-1.6830500
-1.1860800	-1.3733300
-1.7462100	-0.7121150
-1.9227200	0.1562970
-1.6474300	1.0167100
-0.9739040	1.6380300
-0.0736207	1.8449300
0.8116820	1.5773700
1.4457000	0.9113490
1.6703200	0.0311539
1.4466200	-0.8330570
0.8523100	-1.4742800
0.0453135	-1.7580300
-0.7849020	-1.6411600
-1.4592700	-1.1659800
-1.8379300	-0.4432240
