jMRUI Data Textfile

Filename: PE.txt

PointsInDataset: 2048      
DatasetsInFile: 1         
SamplingInterval: 2.5E-1    
ZeroOrderPhase: 0E0       
BeginTime: 0E0       
TransmitterFrequency: 1.2322E8  
MagneticField: 2.9E0     
TypeOfNucleus: 0E0       
NameOfPatient: PE
DateOfExperiment: 
Spectrometer: 
AdditionalInfo: PE
SignalNames: PE.txt;


Signal and FFT
sig(real)	sig(imag)	fft(real)	fft(imag)
Signal 1 out of 1 in file
3.0188000	-0.0000545
2.9312900	-0.6719650
2.6628800	-1.2581900
2.2887300	-1.7125000
1.8784600	-2.0483400
1.4564100	-2.3091000
1.0005800	-2.5199800
0.4799230	-2.6587900
-0.1000330	-2.6683200
-0.6791760	-2.5010500
-1.1675500	-2.1620500
-1.4954100	-1.7169000
-1.6518500	-1.2579600
-1.6837200	-0.8531510
-1.6562200	-0.5147940
-1.6051700	-0.2103490
-1.5168400	0.0945165
-1.3496400	0.3945500
-1.0803100	0.6375230
-0.7382100	0.7570130
-0.4005680	0.7208060
-0.1509500	0.5582070
-0.0311489	0.3452660
-0.0217686	0.1584500
-0.0652247	0.0308640
-0.1130770	-0.0571187
-0.1616510	-0.1471460
-0.2492290	-0.2567480
-0.4175890	-0.3538990
-0.6679200	-0.3724290
-0.9455250	-0.2572310
-1.1660100	-0.0053654
-1.2642700	0.3279590
-1.2304600	0.6632570
-1.1067200	0.9453880
-0.9483100	1.1710200
-0.7790650	1.3753400
-0.5752040	1.5893800
-0.2895360	1.8015700
0.1027890	1.9537300
0.5723610	1.9753300
1.0424600	1.8308800
1.4306100	1.5449500
1.6944400	1.1861000
1.8482900	0.8218930
1.9392100	0.4785310
2.0015600	0.1348920
2.0252000	-0.2456260
1.9616900	-0.6707440
1.7637800	-1.0971700
1.4279000	-1.4484800
1.0070400	-1.6603800
0.5835680	-1.7198300
0.2216830	-1.6690900
-0.0654981	-1.5719500
-0.3105480	-1.4678700
-0.5532090	-1.3483700
-0.7989070	-1.1729500
-1.0064000	-0.9115250
-1.1142500	-0.5803940
-1.0862400	-0.2434220
-0.9411840	0.0232536
-0.7443550	0.1771850
-0.5665290	0.2322410
-0.4409470	0.2414690
-0.3498700	0.2536350
-0.2498510	0.2765060
-0.1155780	0.2744480
0.0317469	0.2016700
0.1335890	0.0452591
0.1342480	-0.1553020
0.0217938	-0.3276820
-0.1611650	-0.4112630
-0.3451540	-0.3937920
-0.4793480	-0.3131570
-0.5610690	-0.2236260
-0.6277640	-0.1525690
-0.7184550	-0.0805651
-0.8347220	0.0402033
-0.9314740	0.2435980
-0.9450390	0.5157900
-0.8377010	0.7962590
-0.6252300	1.0134000
-0.3667350	1.1285100
-0.1244760	1.1555700
0.0762205	1.1427200
0.2571450	1.1300800
0.4605270	1.1162700
0.7065000	1.0591600
0.9676720	0.9102220
1.1806900	0.6561480
1.2865700	0.3359220
1.2697300	0.0199972
1.1665300	-0.2332040
1.0372000	-0.4111920
0.9223370	-0.5468060
0.8168690	-0.6843370
0.6805970	-0.8386730
0.4768200	-0.9788150
0.2091020	-1.0484600
-0.0722326	-1.0080900
-0.2993500	-0.8665890
-0.4302630	-0.6783700
-0.4739810	-0.5078310
-0.4788670	-0.3877200
-0.4933740	-0.3023020
-0.5290050	-0.2074190
-0.5534160	-0.0715664
-0.5185580	0.0936549
-0.4021180	0.2371380
-0.2304310	0.3034120
-0.0650870	0.2728420
0.0370430	0.1765010
0.0605766	0.0744587
0.0378354	0.0137660
0.0202695	-0.0023577
0.0370603	-0.0113054
0.0723672	-0.0568287
0.0783613	-0.1502220
0.0139470	-0.2567520
-0.1204280	-0.3179020
-0.2785170	-0.2927970
-0.3980860	-0.1876320
-0.4425800	-0.0509535
-0.4235150	0.0615504
-0.3871370	0.1261980
-0.3758590	0.1650290
-0.3939820	0.2241190
-0.4037430	0.3333780
-0.3546360	0.4786760
-0.2236690	0.6077280
-0.0359144	0.6655270
0.1503500	0.6327340
0.2828920	0.5382060
0.3497510	0.4363840
0.3829420	0.3667820
0.4292870	0.3261820
0.5108470	0.2743740
0.6051600	0.1687450
0.6603580	0.0012052
0.6337210	-0.1908130
0.5244630	-0.3478360
0.3759070	-0.4287780
0.2453540	-0.4379660
0.1643210	-0.4186180
0.1189840	-0.4179560
0.0652554	-0.4505380
-0.0332926	-0.4875290
-0.1737020	-0.4799070
-0.3123110	-0.3978040
-0.3949590	-0.2560140
-0.3959240	-0.1061970
-0.3362020	-0.0015248
-0.2674070	0.0396646
-0.2335100	0.0439700
-0.2393130	0.0594510
-0.2493320	0.1166100
-0.2176300	0.2035200
-0.1257460	0.2739320
0.0002139	0.2821590
0.1063810	0.2182330
0.1492220	0.1166760
0.1262010	0.0321994
0.0759764	0.0006540
0.0481472	0.0146240
0.0655493	0.0318772
0.1076040	0.0099997
0.1271830	-0.0592269
0.0880203	-0.1418400
-0.0058099	-0.1861680
-0.1107720	-0.1612300
-0.1745080	-0.0800028
-0.1731470	0.0099836
-0.1271940	0.0615792
-0.0842052	0.0620577
-0.0815396	0.0406539
-0.1175010	0.0441147
-0.1526940	0.0989989
-0.1404730	0.1894260
-0.0633317	0.2671940
0.0523630	0.2866450
0.1544850	0.2379560
0.2024160	0.1537480
0.1953820	0.0841773
0.1705990	0.0594261
0.1728750	0.0679853
0.2188790	0.0670376
0.2832190	0.0168998
0.3168870	-0.0867084
0.2840870	-0.2070960
0.1895610	-0.2920050
0.0757771	-0.3108340
-0.0078373	-0.2756410
-0.0403604	-0.2302250
-0.0428054	-0.2157540
-0.0595688	-0.2390770
-0.1221740	-0.2677120
-0.2229340	-0.2552350
-0.3185790	-0.1777290
-0.3611440	-0.0536390
-0.3328160	0.0680319
-0.2584600	0.1423020
-0.1864990	0.1594950
-0.1527070	0.1497560
-0.1543360	0.1576340
-0.1540440	0.2062060
-0.1104450	0.2780310
-0.0119787	0.3274080
0.1116890	0.3146270
0.2094570	0.2362930
0.2448890	0.1287790
0.2214450	0.0422344
0.1779590	0.0047795
0.1579850	0.0038567
0.1763690	-0.0013836
0.2083510	-0.0463097
0.2093710	-0.1314420
0.1504330	-0.2198610
0.0421399	-0.2634340
-0.0708871	-0.2380620
-0.1410690	-0.1613550
-0.1510370	-0.0794720
-0.1240250	-0.0331488
-0.1038850	-0.0286055
-0.1201070	-0.0351975
-0.1644630	-0.0113462
-0.1969910	0.0611328
-0.1767300	0.1604930
-0.0938808	0.2389660
0.0210223	0.2567050
0.1179060	0.2102030
0.1622780	0.1338520
0.1582720	0.0736255
0.1424480	0.0529066
0.1533490	0.0562830
0.2001090	0.0434195
0.2540240	-0.0177188
0.2695250	-0.1236600
0.2186680	-0.2350030
0.1130470	-0.3032440
-0.0034474	-0.3047110
-0.0855719	-0.2561360
-0.1180500	-0.2003190
-0.1238020	-0.1729490
-0.1431540	-0.1757920
-0.2000860	-0.1765010
-0.2813150	-0.1350560
-0.3441960	-0.0366223
-0.3475570	0.0942002
-0.2821900	0.2086820
-0.1780230	0.2673970
-0.0825834	0.2666970
-0.0270807	0.2384800
-0.0056294	0.2237230
0.0169011	0.2400350
0.0746706	0.2679090
0.1714590	0.2660370
0.2745560	0.2040100
0.3367410	0.0875132
0.3298590	-0.0431529
0.2647310	-0.1402420
0.1824810	-0.1810380
0.1239720	-0.1813330
0.1004740	-0.1800350
0.0876370	-0.2068840
0.0470776	-0.2579410
-0.0410534	-0.2975070
-0.1594320	-0.2850360
-0.2631720	-0.2066170
-0.3105970	-0.0871566
-0.2920750	0.0260214
-0.2353140	0.0958490
-0.1833390	0.1199480
-0.1619380	0.1286290
-0.1612430	0.1583320
-0.1452350	0.2209190
-0.0817634	0.2922890
0.0298858	0.3290440
0.1549540	0.3006350
0.2459490	0.2126880
0.2751610	0.1038850
0.2525790	0.0187284
0.2159430	-0.0232818
0.2006960	-0.0389716
0.2127300	-0.0650600
0.2245520	-0.1267520
0.1976460	-0.2154230
0.1139440	-0.2924790
-0.0076121	-0.3166010
-0.1221110	-0.2738550
-0.1891370	-0.1879570
-0.1998300	-0.1030320
-0.1803660	-0.0518960
-0.1695160	-0.0337773
-0.1875390	-0.0180942
-0.2200730	0.0288851
-0.2292260	0.1149870
-0.1833880	0.2129290
-0.0830652	0.2781120
0.0369165	0.2801020
0.1306460	0.2241170
0.1723870	0.1464200
0.1724720	0.0872193
0.1661150	0.0616092
0.1839370	0.0504230
0.2267550	0.0176886
0.2638310	-0.0588084
0.2559250	-0.1672510
0.1856700	-0.2673670
0.0722122	-0.3178110
-0.0410064	-0.3048120
-0.1161870	-0.2506230
-0.1463610	-0.1955650
-0.1570430	-0.1674090
-0.1834300	-0.1612900
-0.2407170	-0.1452230
-0.3102050	-0.0868542
-0.3518360	0.0190383
-0.3337110	0.1433140
-0.2562660	0.2411580
-0.1528390	0.2827270
-0.0661718	0.2727770
-0.0185714	0.2446690
0.0018998	0.2335270
0.0290207	0.2489990
0.0895037	0.2682560
0.1797270	0.2544310
0.2659020	0.1863760
0.3076570	0.0770588
0.2872770	-0.0334700
0.2225350	-0.1053550
0.1535040	-0.1260070
0.1133320	-0.1167170
0.1050480	-0.1140810
0.1017420	-0.1405220
0.0697414	-0.1863410
-0.0030443	-0.2169090
-0.0952576	-0.1994540
-0.1658460	-0.1290990
-0.1831310	-0.0343272
-0.1473040	0.0423285
-0.0894667	0.0738961
-0.0480367	0.0666447
-0.0404289	0.0527157
-0.0513556	0.0635412
-0.0464259	0.1043710
-0.0005238	0.1492880
0.0807213	0.1604870
0.1627780	0.1171880
0.2060930	0.0322602
0.1940600	-0.0560583
0.1440510	-0.1111310
0.0933366	-0.1232860
0.0706686	-0.1145830
0.0750622	-0.1196190
0.0777592	-0.1571520
0.0457219	-0.2141710
-0.0312986	-0.2545530
-0.1307520	-0.2457640
-0.2120210	-0.1834110
-0.2448560	-0.0950690
-0.2301280	-0.0205145
-0.1973790	0.0167141
-0.1812020	0.0250166
-0.1944560	0.0360145
-0.2186000	0.0782407
-0.2183970	0.1533460
-0.1697360	0.2329550
-0.0794015	0.2786050
0.0182414	0.2697280
0.0852146	0.2185430
0.1065010	0.1606720
0.0992722	0.1286270
0.0979732	0.1282250
0.1267410	0.1356600
0.1801250	0.1172810
0.2267140	0.0569240
0.2328830	-0.0300250
0.1886060	-0.1065510
0.1157810	-0.1404570
0.0527349	-0.1273800
0.0266175	-0.0930681
0.0344732	-0.0732837
0.0471727	-0.0866333
0.0330449	-0.1208560
-0.0168191	-0.1428600
-0.0808074	-0.1247730
-0.1224460	-0.0661771
-0.1175960	0.0043603
-0.0725964	0.0496601
-0.0196500	0.0508158
0.0070314	0.0203324
-0.0037215	-0.0083082
-0.0326606	-0.0066403
-0.0458625	0.0269631
-0.0215335	0.0661326
0.0325044	0.0768062
0.0839066	0.0435420
0.0996145	-0.0181215
0.0703608	-0.0726194
0.0173645	-0.0903387
-0.0237814	-0.0689995
-0.0297874	-0.0343540
-0.0067288	-0.0197981
0.0153400	-0.0404303
0.0060278	-0.0812268
-0.0414822	-0.1082570
-0.1043900	-0.0943969
-0.1466780	-0.0400534
-0.1455310	0.0267727
-0.1078280	0.0710915
-0.0642943	0.0765912
-0.0458534	0.0569872
-0.0601208	0.0445665
-0.0858321	0.0647144
-0.0893560	0.1157790
-0.0507231	0.1695330
0.0205615	0.1918700
0.0918826	0.1680590
0.1312140	0.1134830
0.1302310	0.0618161
0.1094140	0.0396560
0.1013980	0.0468406
0.1252850	0.0573012
0.1714200	0.0397194
0.2081620	-0.0177293
0.2055010	-0.0973134
0.1576380	-0.1639840
0.0874849	-0.1906530
0.0297258	-0.1774260
0.0053191	-0.1503350
0.0067006	-0.1406550
0.0048066	-0.1605730
-0.0275266	-0.1936480
-0.0935995	-0.2072820
-0.1690050	-0.1776990
-0.2188340	-0.1085150
-0.2229410	-0.0288457
-0.1902060	0.0275939
-0.1511190	0.0466063
-0.1343970	0.0426716
-0.1453920	0.0463671
-0.1626120	0.0797216
-0.1549080	0.1382720
-0.1062120	0.1934570
-0.0290287	0.2135460
0.0435631	0.1872830
0.0814064	0.1323750
0.0785365	0.0824779
0.0562663	0.0625368
0.0459089	0.0711306
0.0643453	0.0830503
0.1009940	0.0700059
0.1260270	0.0236291
0.1135580	-0.0367494
