jMRUI Data Textfile

Filename: sIns.txt

PointsInDataset: 2048      
DatasetsInFile: 1         
SamplingInterval: 2.5E-1    
ZeroOrderPhase: 0E0       
BeginTime: 0E0       
TransmitterFrequency: 1.2322E8  
MagneticField: 2.9E0     
TypeOfNucleus: 0E0       
NameOfPatient: sIns
DateOfExperiment: 
Spectrometer: 
AdditionalInfo: sIns
SignalNames: sIns.txt;


Signal and FFT
sig(real)	sig(imag)	fft(real)	fft(imag)
Signal 1 out of 1 in file
6.1000000	-0.0000000
5.8609500	-1.5814500
5.2052500	-3.0027400
4.2347500	-4.1605400
3.0590400	-5.0194900
1.7532300	-5.5855800
0.3538580	-5.8601700
-1.1073600	-5.8123900
-2.5616900	-5.3920900
-3.8892400	-4.5742400
-4.9473100	-3.4005500
-5.6237900	-1.9854000
-5.8784600	-0.4791840
-5.7438000	0.9862380
-5.2867300	2.3325600
-4.5609800	3.5282200
-3.5860500	4.5492400
-2.3671900	5.3414900
-0.9388820	5.8163800
0.6040480	5.8860200
2.1150800	5.5131800
3.4416100	4.7391900
4.4772200	3.6686600
5.1850500	2.4217900
5.5782900	1.0881300
5.6757200	-0.2859480
5.4680700	-1.6703400
4.9218500	-3.0093500
4.0178100	-4.2005600
2.7938500	-5.1146000
1.3582100	-5.6441800
-0.1397880	-5.7485300
-1.5625500	-5.4617800
-2.8244300	-4.8606000
-3.8930900	-4.0158800
-4.7551600	-2.9645300
-5.3759300	-1.7208100
-5.6868500	-0.3161510
-5.6125600	1.1661900
-5.1185500	2.5914300
-4.2437300	3.8123000
-3.0930400	4.7211900
-1.7942300	5.2796900
-0.4492300	5.5065100
0.8861160	5.4357700
2.1824800	5.0787600
3.3964300	4.4190200
4.4436400	3.4440300
5.2098200	2.1880500
5.5944900	0.7516870
5.5569900	-0.7196480
5.1318400	-2.0853900
4.4028800	-3.2539000
3.4557100	-4.1915800
2.3435100	-4.8941300
1.0899700	-5.3451900
-0.2758540	-5.4964800
-1.6824200	-5.2864600
-3.0084000	-4.6843400
-4.1144000	-3.7261900
-4.8935600	-2.5150800
-5.3060800	-1.1832900
-5.3746500	0.1571260
-5.1464800	1.4415000
-4.6519900	2.6404800
-3.8917400	3.7219800
-2.8607900	4.6198100
-1.5901200	5.2362100
-0.1715620	5.4793400
1.2559200	5.3094500
2.5515400	4.7604300
3.6192000	3.9207500
4.4237100	2.8881400
4.9683300	1.7306700
5.2536100	0.4814880
5.2513700	-0.8318740
4.9148200	-2.1494800
4.2179300	-3.3647300
3.1937600	-4.3483900
1.9415400	-4.9962700
0.5952570	-5.2675800
-0.7254030	-5.1875500
-1.9478000	-4.8141800
-3.0418800	-4.1952500
-3.9857700	-3.3479900
-4.7311200	-2.2756900
-5.1977100	-1.0065900
-5.3039400	0.3770560
-5.0119200	1.7449300
-4.3540700	2.9587000
-3.4212200	3.9194400
-2.3204800	4.5902900
-1.1330900	4.9805200
0.0984332	5.1059600
1.3473400	4.9578800
2.5648600	4.5048900
3.6599800	3.7267300
4.5155700	2.6534000
5.0320500	1.3787600
5.1681600	0.0357233
4.9504200	-1.2508800
4.4452900	-2.4015300
3.7159200	-3.3849700
2.7954800	-4.1882700
1.6959600	-4.7802300
0.4434780	-5.0987700
-0.8897140	-5.0739500
-2.1838200	-4.6706800
-3.3054400	-3.9193800
-4.1546300	-2.9110700
-4.6928800	-1.7595300
-4.9340300	-0.5572560
-4.9073500	0.6442850
-4.6225700	1.8183700
-4.0640200	2.9267500
-3.2180200	3.8944200
-2.1118100	4.6180000
-0.8325550	5.0042800
0.4904170	5.0122900
1.7296600	4.6687200
2.8000800	4.0462800
3.6688300	3.2212000
4.3306000	2.2415600
4.7703700	1.1283700
4.9443600	-0.0937369
4.7954000	-1.3626200
4.2922200	-2.5705000
3.4629200	-3.5912100
2.3967900	-4.3255500
1.2116000	-4.7336800
0.0089804	-4.8326400
-1.1512700	-4.6631600
-2.2418200	-4.2521200
-3.2340500	-3.5994800
-4.0690500	-2.6989600
-4.6584100	-1.5753700
-4.9170000	-0.3082110
-4.8048800	0.9789860
-4.3481600	2.1586700
-3.6235200	3.1416600
-2.7179900	3.8932800
-1.6931800	4.4145100
-0.5791810	4.7052500
0.6001580	4.7397700
1.7926500	4.4745800
2.9036400	3.8831500
3.8162200	2.9911600
4.4337800	1.8845200
4.7155400	0.6824150
4.6805500	-0.5066280
4.3789500	-1.6153500
3.8531700	-2.6152500
3.1184300	-3.4863400
2.1764200	-4.1854800
1.0500300	-4.6401300
-0.1895360	-4.7747100
-1.4265200	-4.5512300
-2.5356800	-3.9945500
-3.4252800	-3.1833000
-4.0588300	-2.2128500
-4.4423000	-1.1568000
-4.5889600	-0.0540900
-4.4906200	1.0715000
-4.1179400	2.1773400
-3.4500800	3.1826100
-2.5103900	3.9814500
-1.3800100	4.4815800
-0.1771150	4.6418600
0.9851860	4.4823000
2.0332300	4.0604100
2.9369200	3.4323100
3.6838100	2.6278100
4.2459000	1.6569700
4.5670200	0.5413360
4.5824000	-0.6565260
4.2569100	-1.8302800
3.6137700	-2.8592300
2.7317000	-3.6507400
1.7119500	-4.1666800
0.6383190	-4.4167400
-0.4418070	-4.4259500
-1.5040900	-4.2026700
-2.5148500	-3.7320200
-3.4074800	-2.9996100
-4.0885700	-2.0266900
-4.4718400	-0.8886000
-4.5165100	0.2997840
-4.2427000	1.4230500
-3.7132400	2.4023600
-2.9959600	3.2058000
-2.1342600	3.8272800
-1.1467900	4.2530300
-0.0543548	4.4433700
1.0891800	4.3453600
2.1882000	3.9276900
3.1286200	3.2117100
3.8185900	2.2745800
4.2186600	1.2210100
4.3410900	0.1430630
4.2209100	-0.9040550
3.8818300	-1.8949100
3.3233300	-2.8039900
2.5381600	-3.5789200
1.5458700	-4.1398500
0.4151410	-4.4080300
-0.7443910	-4.3438200
-1.8173000	-3.9667700
-2.7209700	-3.3431500
-3.4215300	-2.5503300
-3.9181000	-1.6440700
-4.2100000	-0.6516100
-4.2738000	0.4063670
-4.0691600	1.4845200
-3.5694800	2.4989000
-2.7941900	3.3438700
-1.8174900	3.9300700
-0.7452450	4.2171600
0.3242630	4.2189700
1.3288600	3.9787100
2.2415800	3.5340000
3.0441800	2.8982800
3.6981900	2.0719700
4.1381200	1.0733800
4.2940700	-0.0359837
4.1284400	-1.1534500
3.6596900	-2.1657600
2.9557300	-2.9879900
2.1013200	-3.5844000
1.1630900	-3.9581600
0.1766570	-4.1203400
-0.8368160	-4.0632300
-1.8401400	-3.7595400
-2.7616300	-3.1882000
-3.5057000	-2.3669000
-3.9870400	-1.3656600
-4.1650800	-0.2893700
-4.0543300	0.7595970
-3.7043700	1.7131100
-3.1650500	2.5423600
-2.4631200	3.2354000
-1.6070000	3.7670900
-0.6143070	4.0866900
0.4608950	4.1343300
1.5243400	3.8752900
2.4669700	3.3266900
3.2030900	2.5564400
3.6953000	1.6544900
3.9498000	0.6967020
3.9879000	-0.2733650
3.8167500	-1.2335400
3.4223100	-2.1542000
2.7897700	-2.9762600
1.9353500	-3.6154100
0.9239700	-3.9919700
-0.1424520	-4.0657900
-1.1595300	-3.8513900
-2.0543700	-3.4029500
-2.7961500	-2.7807100
-3.3781800	-2.0238300
-3.7878500	-1.1488800
-3.9892600	-0.1733210
-3.9334600	0.8562310
-3.5895100	1.8550500
-2.9730400	2.7201300
-2.1505700	3.3665900
-1.2150400	3.7557300
-0.2497870	3.8957700
0.6943240	3.8167500
1.5936500	3.5395500
2.4254600	3.0632800
3.1432200	2.3799900
3.6749100	1.5048100
3.9478300	0.4968750
3.9230500	-0.5466070
3.6145800	-1.5213100
3.0795000	-2.3508800
2.3865500	-3.0024300
1.5861000	-3.4735800
0.7028320	-3.7631500
-0.2453600	-3.8498700
-1.2191500	-3.6963900
-2.1441700	-3.2763500
-2.9251100	-2.6039800
-3.4794500	-1.7431200
-3.7676600	-0.7877220
-3.7992100	0.1733370
-3.6111800	1.0826800
-3.2368900	1.9148500
-2.6882000	2.6532000
-1.9645100	3.2634700
-1.0802600	3.6865700
-0.0884237	3.8580300
0.9200420	3.7409700
1.8428400	3.3484800
2.6015200	2.7390300
3.1613100	1.9878700
3.5231000	1.1552200
3.6960000	0.2736680
3.6728100	-0.6379900
3.4281900	-1.5473300
2.9411500	-2.3908700
2.2246400	-3.0823900
1.3388700	-3.5432000
0.3768390	-3.7336100
-0.5689110	-3.6635400
-1.4354900	-3.3755900
-2.1954100	-2.9139800
-2.8372400	-2.3026800
-3.3384400	-1.5487200
-3.6532200	-0.6663690
-3.7263800	0.2977760
-3.5238900	1.2602600
-3.0577700	2.1226500
-2.3864400	2.8058600
-1.5897000	3.2734400
-0.7361160	3.5287100
0.1342860	3.5897200
1.0013200	3.4625600
1.8389700	3.1340400
2.5948500	2.5891900
3.1929900	1.8400000
3.5599200	0.9422480
3.6564600	-0.0137711
3.4924600	-0.9337590
3.1144700	-1.7504300
2.5759300	-2.4341700
1.9121200	-2.9778800
1.1377500	-3.3700000
0.2674410	-3.5780700
-0.6585700	-3.5569600
-1.5653200	-3.2763700
-2.3599000	-2.7471600
-2.9640200	-2.0264700
-3.3400000	-1.1967200
-3.4927500	-0.3332230
-3.4478600	0.5172050
-3.2237100	1.3326200
-2.8191200	2.0927600
-2.2257200	2.7563400
-1.4548500	3.2584600
-0.5573490	3.5321600
0.3807580	3.5395100
1.2652900	3.2898700
2.0257800	2.8322900
2.6305200	2.2277300
3.0759000	1.5216200
3.3603700	0.7363590
3.4646100	-0.1126210
3.3541300	-0.9912670
3.0031000	-1.8338000
2.4213400	-2.5543000
1.6636600	-3.0767300
0.8132840	-3.3626600
-0.0494855	-3.4178900
-0.8717870	-3.2741600
-1.6296700	-2.9609100
-2.3079200	-2.4885900
-2.8760400	-1.8558100
-3.2808100	-1.0737500
-3.4628700	-0.1879070
-3.3863400	0.7212670
-3.0598400	1.5614800
-2.5335400	2.2604000
-1.8741300	2.7844000
-1.1360200	3.1325200
-0.3489600	3.3121500
0.4703320	3.3166000
1.2936400	3.1223800
2.0648000	2.7088300
2.7061500	2.0849400
3.1452400	1.3023300
3.3435400	0.4433120
3.3071300	-0.4085410
3.0725000	-1.1952700
2.6787700	-1.8907600
2.1474700	-2.4841000
1.4843800	-2.9550900
0.7009670	-3.2624500
-0.1627300	-3.3553700
-1.0329300	-3.2008100
-1.8209000	-2.8065200
-2.4537600	-2.2225800
-2.8962700	-1.5196900
-3.1493500	-0.7597700
-3.2281900	0.0204695
-3.1379600	0.8026480
-2.8663000	1.5639100
-2.3983300	2.2579100
-1.7424700	2.8162400
-0.9465160	3.1713000
-0.0903330	3.2851300
0.7409880	3.1636800
1.4854400	2.8468200
2.1147200	2.3818800
2.6214400	1.8006000
2.9950100	1.1160700
3.2061300	0.3404510
3.2132500	-0.4916130
2.9869400	-1.3138800
2.5341200	-2.0426500
1.9036900	-2.6058400
1.1686300	-2.9670400
0.3969210	-3.1283700
-0.3683950	-3.1115600
-1.1069800	-2.9327400
-1.8007800	-2.5905300
-2.4131900	-2.0763000
-2.8858200	-1.3982800
-3.1570800	-0.5999780
-3.1903000	0.2425530
-2.9909900	1.0443900
-2.6011200	1.7406300
-2.0746700	2.3008600
-1.4526200	2.7204900
-0.7552230	2.9976700
0.0041868	3.1148800
0.7961990	3.0403300
1.5627000	2.7489300
2.2263500	2.2468500
2.7171800	1.5809600
2.9981100	0.8248970
3.0718700	0.0511177
2.9655300	-0.6917480
2.7050500	-1.3812100
2.2996600	-2.0033700
1.7473400	-2.5311200
1.0565200	-2.9165600
0.2661520	-3.1051300
-0.5526800	-3.0621900
-1.3168300	-2.7926400
-1.9597000	-2.3393700
-2.4489900	-1.7614300
-2.7822000	-1.1078800
-2.9652800	-0.4058750
-2.9919800	0.3297100
-2.8406000	1.0743600
-2.4910100	1.7784500
-1.9488800	2.3721300
-1.2583100	2.7887800
-0.4920840	2.9912500
0.2744440	2.9824500
0.9879410	2.7935100
1.6236700	2.4590000
2.1712500	1.9981900
2.6125800	1.4158700
2.9105000	0.7210780
3.0183400	-0.0518623
2.9042000	-0.8378160
2.5723400	-1.5568900
2.0655000	-2.1420300
1.4462400	-2.5593900
0.7704300	-2.8079000
0.0716786	-2.9002700
-0.6332720	-2.8408600
