jMRUI Data Textfile

Filename: dataset1_nWS.txt

PointsInDataset: 2048      
DatasetsInFile: 1         
SamplingInterval: 2.5E-1    
ZeroOrderPhase: 0E0       
BeginTime: 0E0       
TransmitterFrequency: 1.2322E8  
MagneticField: 2.9E0     
TypeOfNucleus: 0E0       
NameOfPatient: dataset1_nWS
DateOfExperiment: 
Spectrometer: 
AdditionalInfo: dataset1_nWS
SignalNames: dataset1_nWS.txt;


Signal and FFT
sig(real)	sig(imag)	fft(real)	fft(imag)
Signal 1 out of 1 in file
49919.3290000	-21.8776490
49715.3960000	-16.2875550
49467.0940000	6.9230177
49241.6480000	10.4233280
48975.8850000	9.7316723
48751.2810000	1.7698140
48526.4500000	6.2167996
48334.6350000	-14.1349050
48080.5370000	13.9403540
47869.4300000	0.6143286
47628.2180000	-13.5872240
47416.1970000	-7.4299502
47205.0970000	-11.0000880
46948.3310000	19.6042740
46740.9780000	-7.4904213
46527.2610000	18.9947100
46281.8850000	13.8169050
46089.1420000	-22.8116910
45891.5150000	10.3973370
45654.6220000	-1.9692685
45436.8880000	5.7933631
45231.1210000	-16.7663730
44993.2110000	16.9185290
44789.9500000	20.3228510
44585.4350000	-22.8547750
44382.9250000	-6.3916291
44190.5790000	-5.2183885
43948.1100000	-9.5754455
43736.5360000	4.3669437
43559.2490000	-1.7200060
43338.1490000	13.8832740
43164.9470000	-14.1742690
42929.1720000	-4.7159425
42728.5820000	-23.4910490
42542.0380000	-18.6800180
42323.1160000	-10.0535430
42157.2980000	-6.3766539
41928.5720000	-20.0263950
41757.8360000	22.7671950
41530.6970000	19.8432190
41370.3180000	-20.6738460
41169.8420000	23.0285870
40963.8200000	2.1832152
40774.7580000	-18.9319920
40568.7070000	22.6664040
40380.1690000	14.2191380
40190.4880000	17.3947990
40002.9280000	-8.8740077
39803.6860000	4.9184482
39634.7710000	-5.9392041
39452.5090000	13.1148200
39251.2160000	0.0636540
39066.7670000	-21.2711480
38903.0180000	15.4297070
38691.3940000	-4.8123878
38548.0540000	-13.6401380
38357.8460000	8.1294201
38177.6230000	0.3812568
37980.4360000	12.8735240
37809.6750000	-7.8420439
37633.4660000	16.9921380
37441.6270000	12.3149180
37303.8510000	21.7784640
37122.3760000	-10.2546830
36952.8020000	23.1900040
36749.3430000	19.1553540
36584.9340000	-4.1516749
36399.6030000	4.4357126
36238.8960000	-12.7816390
36054.6620000	-20.4863170
35896.1570000	-12.8770160
35720.1810000	14.2178890
35552.3830000	-16.5760750
35380.5490000	13.2046840
35207.5640000	-5.7765109
35054.7410000	-20.1411210
34903.0390000	11.4405430
34740.4440000	16.8205360
34577.0060000	-7.9510103
34407.6390000	-16.6775610
34263.8400000	-16.5542650
34082.0210000	-9.3477549
33941.1700000	1.3097954
33785.3270000	11.0831620
33630.5260000	-6.4466446
33474.4090000	-2.0308745
33289.0300000	20.3994630
33152.9610000	19.1794710
32983.2770000	-6.3695669
32849.1050000	-12.8723880
32665.7170000	-19.9758950
32505.7790000	12.3575890
32354.0900000	16.1844940
32192.4960000	-15.1169980
32046.8210000	-10.8791420
31918.3650000	-4.9525127
31754.3700000	23.3897310
31599.2940000	13.9125220
31472.5240000	-15.4977160
31298.6190000	1.5772041
31164.2740000	22.9915350
30999.5950000	-6.3374750
30881.5550000	5.0159773
30754.4590000	2.1837723
30575.0460000	9.6684802
30424.3740000	-21.4630830
30316.9630000	12.8313570
30145.4880000	7.8708117
30005.0520000	-8.4804225
29885.9310000	-17.8072550
29710.8450000	-1.5245281
29598.5090000	-1.7695278
29444.7940000	-1.7850551
29300.9370000	17.5606460
29164.4760000	-1.3273317
29059.5170000	12.4726680
28887.1320000	5.8312372
28781.1650000	4.1722140
28630.0930000	-6.9812485
28496.6820000	14.7792410
28361.8680000	-8.1973796
28239.6690000	20.9655190
28108.1750000	12.4460060
27988.2140000	-3.4951353
27819.5020000	-18.4471870
27698.3430000	0.4351854
27583.3990000	1.0532124
27424.2990000	-2.2023741
27337.6060000	9.5610677
27192.2140000	12.9237230
27045.1140000	13.5119810
26929.0930000	-19.5114870
26804.9440000	6.2372709
26702.6980000	22.7015780
26553.3720000	-4.6209348
26439.2850000	9.7789368
26320.3390000	11.1812550
26160.2490000	13.0547890
26045.7400000	6.3736353
25942.3570000	14.6116110
25830.9790000	8.7942218
25676.9260000	15.9800610
25591.7210000	20.7807870
25467.6390000	6.8744402
25353.8100000	2.3292868
25219.3020000	0.1918124
25076.1510000	-19.4674000
24975.7160000	-7.5930934
24855.2530000	3.4769195
24759.5500000	5.7681001
24607.0340000	19.2812900
24532.7510000	-17.7171510
24380.3530000	-13.1440320
24302.8360000	18.9844990
24145.7780000	7.4648128
24032.7410000	-21.3257700
23945.9330000	11.2419700
23812.7910000	1.0993200
23713.8960000	-15.9067130
23609.7800000	-4.6553346
23473.1150000	-23.4561050
23385.5030000	-7.7173176
23258.1660000	-13.5985080
23182.5060000	-14.3834720
23072.6320000	17.1264580
22953.1980000	-9.4621871
22817.4030000	10.2498220
22730.2140000	-22.8146080
22625.1460000	19.1567730
22501.6170000	-10.7609730
22390.2520000	-14.7083560
22306.4810000	6.0072584
22197.7810000	15.8845040
22109.4800000	11.5850640
21983.0130000	-6.7430776
21894.1560000	7.3732667
21783.5840000	-22.4975690
21676.1350000	22.2064530
21586.9010000	-1.8976999
21462.1650000	-12.1108120
21393.5650000	12.1572020
21286.4510000	14.3094540
21157.2660000	13.5791240
21095.0580000	-8.0611372
20964.4930000	5.4692685
20884.7420000	4.2782969
20761.3430000	4.3875692
20682.4260000	0.0777355
20565.4000000	5.6372395
20489.3550000	9.2383361
20376.9340000	19.1388550
20321.1040000	18.3050040
20199.4790000	-1.0187263
20111.3540000	4.3500720
20027.3410000	-23.4911980
19918.1580000	-2.3789190
19828.4240000	-18.2917740
19714.5000000	10.5508830
19663.4840000	-9.9008845
19566.2660000	-7.8514348
19449.9400000	-1.3275128
19387.6600000	4.9869991
19250.4180000	-5.2060823
19198.9130000	1.0552614
19076.6180000	-1.4362332
18990.0500000	-4.4652607
18929.5000000	12.0789260
18816.7900000	-14.2092670
18723.0730000	-8.9019229
18628.2410000	-18.7290870
18546.7050000	18.6243290
18462.1880000	-19.8364710
18392.8130000	-19.3777310
18287.7320000	6.8514996
18202.1570000	14.6737100
18134.6740000	-18.7685280
18038.0690000	-22.3272910
17945.3530000	-20.6834290
17888.3590000	-8.6538789
17808.7520000	-8.4222170
17727.3160000	6.7649893
17606.6990000	7.4206467
17526.3770000	-6.1499358
17457.9770000	20.9201880
17365.4950000	-11.8934660
17301.7200000	-12.7408810
17193.3420000	-19.1501240
17128.3190000	8.4082372
17043.1790000	-14.1191540
16976.4950000	-8.0833411
16901.5610000	-13.5468790
16807.3860000	-22.3505120
16756.3590000	12.5382990
16664.6630000	4.7401177
16557.3770000	15.6473600
16500.3640000	1.0188372
16427.2380000	9.1215120
16340.0620000	-3.8762108
16280.6470000	-22.0435790
16206.9380000	22.0920400
16123.3000000	-2.0926914
16015.5440000	17.5778150
15958.6880000	-2.0356409
15866.6190000	10.8498120
15804.2420000	1.8699694
15719.0260000	13.4598320
15652.7460000	-0.2443494
15569.9250000	-1.2925650
15539.7750000	-22.9931000
15450.6950000	11.3473010
15360.1060000	5.6326496
15303.4520000	20.9641460
15225.9670000	-2.7399725
15139.2980000	-17.8440510
15075.8830000	19.5689040
15035.6880000	15.4905500
14954.6800000	11.6027590
14880.7910000	1.0863517
14782.4530000	12.5810480
14718.2100000	6.0201613
14673.9480000	-3.8095364
14600.1520000	-5.6263396
14506.2710000	15.3839730
14459.3200000	-8.7748066
14374.1470000	3.8038389
14336.8060000	-3.6817060
14264.9650000	2.5573502
14187.5510000	21.8148860
14132.5630000	-18.4842530
14066.0780000	-18.7616580
14010.2900000	-7.2570448
13910.0220000	16.2794650
13849.7230000	3.2031369
13785.0760000	3.9529340
13746.3250000	2.7524879
13667.7860000	21.0755040
13595.3970000	-13.2984480
13547.8750000	-8.6113978
13472.2160000	-14.1591310
13398.2200000	-4.4075628
13328.6800000	-15.9377510
13281.4400000	14.6929180
13224.3670000	-1.3422489
13167.6370000	-21.5561060
13100.4000000	-1.8694079
13057.6930000	-16.3176370
12992.1450000	0.3787408
12924.3670000	-8.1596930
12849.0160000	7.1038193
12787.3350000	21.6480160
12711.1260000	2.9694374
12688.3690000	23.2306350
12588.5770000	2.9311489
12549.9590000	-8.9961293
12500.4670000	13.9961000
12415.1660000	-7.6862395
12392.3590000	6.7558180
12323.5000000	-11.6271770
12246.7490000	-13.6820090
12200.2560000	-5.9921375
12157.8760000	10.5192640
12093.6030000	-15.9603110
12053.7220000	-13.2291610
11959.6290000	-22.6882520
11910.2130000	-8.2783198
11873.7010000	-20.8715500
11803.2350000	23.3763350
11727.5230000	-12.0033660
11678.0670000	-20.3731930
11635.3100000	7.7496536
11576.6080000	-8.3256370
11521.0880000	17.4806930
11473.4840000	8.5085366
11407.3740000	5.4136950
11383.6350000	-18.4604000
11333.7820000	6.7250749
11256.0460000	15.0387490
11230.7860000	-14.4969080
11175.9070000	-6.3133799
11107.6260000	6.1441235
11041.5890000	1.0789493
11022.9180000	18.7891620
10952.3540000	7.1834811
10896.9230000	6.2205633
10849.1540000	16.4785790
10814.8170000	-21.4754170
10759.0120000	6.6958586
10703.4870000	17.7429380
10645.0770000	17.1994980
10572.4490000	-19.3694880
10547.9750000	-14.9032130
10490.7980000	21.7420960
10430.8100000	-4.4693225
10394.6870000	23.2741400
10341.7560000	-15.6343310
10309.4430000	-20.5980820
10242.4210000	-4.2401795
10210.9000000	-15.7772250
10142.2310000	4.6227471
10092.9840000	-0.3983545
10062.2660000	-9.5025963
10013.6170000	0.8659783
9982.7839000	18.6388200
9895.1164000	-16.0689330
9876.7939000	-21.6080280
9841.5518000	5.3454569
9756.9678000	-18.6330280
9721.4005000	3.5137822
9663.7816000	-3.8026358
9659.2585000	-13.4022490
9576.0805000	19.5757610
9573.6527000	-17.4047250
9498.8053000	5.2649630
9474.4068000	12.0464930
9423.6950000	23.1865670
9357.2281000	-2.9430467
9308.1024000	8.5157111
9280.3641000	-13.5031770
9254.4603000	-12.3934090
9196.6811000	-1.2156368
9149.5426000	3.6654052
9114.1250000	19.0657140
9069.3435000	16.8738640
9014.3582000	0.8183029
8989.2465000	13.8642040
8920.8920000	8.6046411
8912.4948000	-13.7798150
8847.8470000	20.3492660
8799.0042000	20.3524110
8774.1272000	-17.3239210
8729.2106000	2.6608868
8681.7909000	-18.2233600
8650.2822000	-0.7495383
8594.7155000	-22.3911020
8571.6164000	13.4783370
8546.3973000	-3.3903286
8473.0035000	9.7737165
8448.1054000	16.0764250
8431.9133000	0.0210549
8384.9495000	19.8293540
8329.6960000	-12.7654650
8305.2593000	-3.0855389
