jMRUI Data Textfile

Filename: dataset21_nWS.txt

PointsInDataset: 2048      
DatasetsInFile: 1         
SamplingInterval: 2.5E-1    
ZeroOrderPhase: 0E0       
BeginTime: 0E0       
TransmitterFrequency: 1.2322E8  
MagneticField: 2.9E0     
TypeOfNucleus: 0E0       
NameOfPatient: dataset21_nWS
DateOfExperiment: 
Spectrometer: 
AdditionalInfo: dataset21_nWS
SignalNames: dataset21_nWS.txt;


Signal and FFT
sig(real)	sig(imag)	fft(real)	fft(imag)
Signal 1 out of 1 in file
46962.3830000	-10.3354790
46733.4640000	-4.0836449
46508.7750000	7.3510339
46302.0860000	-6.7782838
46077.3430000	1.8053772
45863.5810000	-8.8362083
45656.4130000	-5.9674412
45434.0150000	-0.4067550
45213.0450000	9.9853749
45000.5130000	-2.8603702
44788.2680000	9.2405736
44578.7470000	5.9967015
44383.8810000	6.8243582
44164.4250000	0.1076854
43969.1170000	4.1184518
43751.3170000	0.3100682
43547.0290000	10.0408770
43335.9640000	-4.4758135
43148.3920000	-9.0241741
42947.1620000	7.8562202
42744.7180000	-7.8736795
42533.4270000	7.8515594
42343.8840000	-7.8353041
42143.4660000	-8.4731147
41936.7620000	2.3208359
41741.8350000	5.9037611
41535.5380000	-7.4703551
41357.0870000	-8.1144253
41161.1080000	7.9444228
40967.9500000	-9.0188028
40772.3280000	1.0068279
40587.0650000	2.9000007
40396.4290000	-2.7541023
40192.5440000	3.6783540
40002.2770000	8.5713504
39823.5770000	5.4671412
39633.6100000	1.6659722
39442.2470000	-5.6663630
39259.9550000	-0.3403904
39073.6200000	-6.8216950
38896.3970000	0.5467303
38714.3190000	-6.1485603
38527.0910000	2.3550972
38351.6150000	-0.0707778
38169.7920000	-8.1668361
37991.5670000	7.2511335
37806.3630000	-2.8437038
37639.0050000	-0.1612928
37451.2470000	-3.2062339
37277.6450000	-1.1966130
37109.8090000	10.4430750
36919.2090000	-8.1356622
36746.9130000	4.1108475
36581.9220000	10.3190650
36410.6130000	-1.8589279
36231.9420000	1.4002677
36058.1370000	-6.3122556
35892.3890000	1.8812048
35720.5500000	6.6611300
35550.8200000	-4.9033352
35393.0650000	-8.0673676
35236.4220000	-8.4815492
35054.7700000	5.5431235
34897.0470000	6.6407938
34728.9080000	-6.3966052
34567.5030000	4.8927284
34401.7680000	-8.1625441
34242.4220000	10.0534990
34081.6440000	-9.2307694
33927.2420000	-6.2297779
33767.4730000	-0.1400979
33613.6680000	0.5308842
33438.5080000	-7.1514561
33297.3760000	-0.3148209
33137.7090000	9.3975196
32978.1890000	3.2838487
32818.6210000	-2.0070303
32662.9860000	5.3009754
32510.2390000	-7.7918784
32365.6330000	3.8822252
32205.0910000	-2.5288211
32062.0860000	-6.6575014
31897.8040000	3.0650000
31763.5460000	-10.3418970
31600.8110000	10.4492480
31465.6130000	-2.8967879
31306.2590000	-4.0587873
31175.3560000	2.3069423
31008.1400000	3.9816243
30882.1260000	5.5324539
30726.1770000	-6.8298519
30577.8960000	3.6263127
30445.1120000	5.1265904
30290.5590000	7.6188424
30155.3580000	4.5851583
30022.6110000	2.0459599
29881.6570000	6.1142183
29724.7580000	-5.9598673
29598.9330000	0.9280300
29458.4720000	-1.8947837
29317.1290000	-9.6788705
29175.6590000	-9.0315849
29043.9100000	-9.7451341
28908.4400000	-9.7296271
28775.6450000	10.2753830
28632.9380000	-6.9369498
28491.9120000	6.7329271
28370.9340000	-6.5387532
28238.5460000	-7.6683390
28090.0050000	-1.5193130
27972.7190000	-2.3968033
27830.6910000	8.1374804
27705.1920000	2.5944481
27577.1340000	10.4423980
27449.1120000	-2.2691395
27316.2610000	5.6369626
27184.4680000	4.3275288
27049.2390000	4.5440276
26920.0100000	-0.7830427
26800.4690000	-9.0405182
26667.9850000	7.0597426
26549.2810000	-6.0202277
26432.7350000	-5.3932340
26302.3810000	9.7140261
26185.5770000	1.5210381
26049.4370000	-4.5075777
25941.6750000	7.7640146
25812.8380000	-6.9820176
25694.0460000	5.1768253
25566.2390000	-6.4811537
25452.5120000	4.7327661
25339.4080000	-1.2528714
25216.0770000	-5.2902193
25085.5440000	-3.5844347
24968.6260000	0.9523545
24860.4680000	8.5824965
24730.3830000	-1.2415546
24624.9070000	-8.2854141
24509.0470000	-7.1589543
24388.7000000	-1.4610575
24268.1730000	-9.9449128
24164.3280000	-6.0580060
24041.9300000	4.3382545
23934.8040000	3.4464655
23833.6490000	-1.7000858
23714.9800000	-1.6855813
23602.2780000	-3.2608141
23484.8470000	9.7382337
23376.7530000	1.3777798
23272.4690000	2.6795077
23152.3770000	3.5366215
23057.8970000	-2.6438294
22940.0350000	-2.0458812
22836.6640000	-7.0044662
22731.6560000	-2.3049580
22614.4570000	-3.5208523
22516.7070000	2.1070266
22417.3450000	-5.6581660
22309.9540000	-7.3648163
22198.5470000	4.5193189
22086.8210000	2.0748320
21979.5670000	-4.5758112
21886.0330000	-5.8092297
21780.6070000	-1.1427862
21685.9040000	-1.8336431
21569.5210000	-5.7727636
21473.9650000	-0.0016343
21369.9820000	-1.2353283
21277.4930000	-6.9111679
21167.2900000	4.1583510
21083.0880000	-1.3771474
20985.2580000	4.8813323
20872.4950000	-1.4839467
20789.0250000	2.9377257
20692.4720000	-8.6225959
20588.0790000	7.5094077
20488.0050000	2.6895111
20385.9080000	1.6600244
20304.0210000	-3.6555752
20211.7850000	-5.9951702
20098.1200000	1.0079145
20018.5010000	8.2889977
19921.9590000	6.5144320
19820.7320000	1.7229401
19727.8040000	-1.2768514
19639.3790000	8.2189887
19545.9990000	3.6884269
19455.6010000	10.2475010
19373.1410000	-1.3156277
19281.0910000	9.9406426
19189.9970000	-0.9027759
19081.7680000	0.6231886
18998.5600000	4.1333066
18920.7800000	0.2473790
18824.4440000	-3.6029274
18737.0350000	3.3424550
18646.8350000	-0.0548118
18558.7500000	9.8996037
18461.6430000	-0.0618052
18391.2080000	-5.0757284
18296.9300000	2.6987120
18220.1580000	2.9285258
18116.5090000	-7.5837936
18049.6970000	-4.1921651
17958.2220000	-7.6451245
17877.8040000	6.8544299
17782.0850000	-5.6186285
17710.6700000	2.4527271
17613.6390000	-5.9448654
17537.4260000	1.5920635
17452.1040000	0.9878405
17367.7520000	0.6507139
17281.8180000	1.1496182
17214.7670000	3.2881386
17138.4590000	1.4892466
17040.1500000	-4.6732123
16970.8750000	-6.1385741
16883.4710000	7.4090748
16802.2350000	9.6215719
16726.6340000	-3.7022309
16647.5790000	10.4289060
16570.8990000	0.1999234
16495.7650000	4.1030981
16411.6980000	9.2954013
16338.6930000	3.9623509
16264.2070000	5.4314323
16181.4330000	2.8338741
16102.0890000	-10.2627640
16046.7660000	6.8027182
15969.1360000	9.6680511
15881.9310000	-8.4279365
15805.9600000	10.5975350
15742.1240000	-10.4243920
15664.7990000	4.2462995
15596.1170000	9.7649695
15512.2230000	2.4652570
15433.8660000	7.4286625
15376.1640000	-0.5732804
15294.6490000	6.5691815
15217.2160000	5.8059770
15149.8510000	-1.7664600
15079.8910000	7.6963686
15008.8020000	6.4656895
14946.7020000	-4.2874766
14861.2850000	-10.5405830
14793.9700000	5.8860888
14736.0050000	6.8010856
14659.1240000	-3.8609541
14597.0820000	0.3421350
14514.7210000	0.8591325
14450.8140000	6.7586666
14391.2330000	3.9379730
14321.2180000	-0.5414258
14261.8350000	-7.0530191
14193.0430000	-7.9352694
14118.8660000	5.2381763
14044.2360000	-0.1005525
13984.2970000	0.2177732
13930.5060000	-1.3654014
13857.9090000	4.5058725
13790.2130000	3.6865572
13731.6120000	-2.5214056
13655.8430000	-10.6662920
13591.2540000	-0.6045939
13539.2950000	2.7854116
13480.0130000	-7.1556653
13409.0650000	-6.5405031
13339.2700000	7.9901244
13291.0180000	-10.1358180
13209.2260000	1.2983057
13151.3590000	0.5556682
13087.6920000	1.0464039
13034.8210000	-8.8857108
12972.6490000	7.8398015
12911.3520000	10.0520080
12847.3990000	-4.1405054
12783.0940000	-10.1128450
12726.1660000	3.8921806
12677.1420000	6.2028807
12609.4730000	8.7774147
12552.2420000	-5.7810198
12495.1930000	3.5275852
12437.8800000	-5.2032854
12375.7630000	3.4834491
12318.3390000	-8.5925193
12250.0570000	-5.5463187
12206.8650000	-6.3357736
12143.1510000	-2.0719581
12088.4520000	-10.1158040
12020.7080000	-3.7380041
11979.8360000	5.4628627
11925.7710000	5.1784405
11854.8110000	-1.2601195
11812.2590000	0.0193643
11739.2930000	7.4864975
11701.2760000	-9.5263429
11638.4070000	0.1549165
11589.0570000	6.7368271
11529.6780000	7.0154309
11475.7120000	-3.0283245
11416.6880000	9.8443562
11363.1030000	8.4244079
11320.4910000	1.4794054
11268.8240000	5.7571537
11212.1370000	9.4910802
11165.5670000	-10.0735900
11105.9650000	6.1912830
11048.3100000	10.0484310
10996.8720000	-0.6904506
10953.2250000	-2.3879822
10897.4430000	1.5057050
10836.1250000	-7.8301055
10798.4420000	-3.1384815
10746.4100000	2.1122377
10691.9270000	5.5076308
10648.2300000	8.6660366
10597.3670000	9.4643766
10536.6820000	10.2722790
10500.0200000	2.0557499
10435.5460000	9.5414916
10390.2360000	-4.9398289
10351.6610000	-10.5705000
10304.8350000	0.8795314
10251.4720000	0.9741267
10202.1340000	1.1245301
10156.3090000	-5.2440066
10107.3560000	-2.0733922
10052.2280000	-7.9829334
10012.5830000	-10.6192630
9970.1610000	-7.5611591
9908.7839000	3.9164324
9869.9849000	6.7003901
9816.8315000	2.8507253
9766.7224000	0.2937826
9740.7450000	8.3089129
9684.2182000	-7.6007037
9643.9309000	6.9542774
9595.4159000	-6.8572799
9557.6793000	0.9980245
9500.3213000	0.9705965
9466.8028000	9.1732154
9410.1490000	7.3181052
9381.7900000	1.1068680
9328.8039000	-7.6343951
9273.7485000	-6.4537656
9238.4669000	2.8462851
9194.1320000	1.6962893
9156.0500000	-0.7514623
9103.0020000	-7.2955494
9066.7863000	1.4171356
9027.1882000	-3.9798495
8980.2372000	7.1094005
8949.7612000	3.2768459
8891.6777000	-2.4967744
8862.0921000	-9.4831230
8819.9475000	-8.4064362
8766.5065000	-7.5008481
8738.3277000	2.2388977
8700.5041000	3.0191929
8647.2593000	-4.5230222
8599.8819000	-10.0948960
8560.4931000	10.3327490
8527.5738000	-6.0425100
8487.8741000	-5.0475447
8452.1580000	0.3523522
8405.6207000	-6.5207731
8362.6974000	8.6565998
8321.3678000	6.0479992
8297.7544000	4.9438551
8241.6021000	-7.5335009
8210.4447000	-2.3306029
8165.7545000	7.4025143
8131.1276000	7.4494723
8093.1439000	8.3548919
8052.7302000	9.3017822
8027.6269000	0.3163778
7985.8807000	9.9890851
7955.4524000	10.2382420
7900.3606000	6.7648391
7861.5454000	10.4676480
7827.1473000	-5.8579967
7802.7974000	-7.0059987
7761.2034000	2.5542786
7724.0915000	10.2607130
7679.2003000	5.1064998
7648.2550000	-2.7929109
7626.0980000	-8.6773719
7579.4713000	-6.3117368
7548.2563000	-0.3271727
7503.4676000	0.0823144
