jMRUI Data Textfile

Filename: dataset8_WS.txt

PointsInDataset: 2048      
DatasetsInFile: 1         
SamplingInterval: 2.5E-1    
ZeroOrderPhase: 0E0       
BeginTime: 0E0       
TransmitterFrequency: 1.2322E8  
MagneticField: 2.9E0     
TypeOfNucleus: 0E0       
NameOfPatient: dataset8_WS
DateOfExperiment: 
Spectrometer: 
AdditionalInfo: dataset8_WS
SignalNames: dataset8_WS.txt;


Signal and FFT
sig(real)	sig(imag)	fft(real)	fft(imag)
Signal 1 out of 1 in file
261.0893300	-103.2412200
469.8672900	-214.9669700
326.8705500	-367.6536200
130.6111100	-426.3722200
-47.7746860	-384.9837300
-173.0852900	-280.6028700
-221.0542200	-142.2737400
-195.2950700	-21.7063430
-122.9641700	56.3427330
-42.0771080	71.1920180
24.1496460	46.7366530
53.8115660	-6.1241026
43.2477760	-53.6290370
12.6758910	-81.0754250
-26.5717120	-91.6386930
-60.0193020	-73.7996910
-77.9505920	-54.5001400
-87.1534480	-28.8222980
-86.3707420	-4.3272327
-82.5184730	16.5199030
-77.1751410	39.5951160
-61.1714570	54.9261530
-35.7084090	71.9133780
-10.1027730	75.6292570
22.9290590	65.8643690
44.9036570	44.6840340
50.7333170	8.2231894
39.7852450	-18.6512470
11.6384300	-37.1027630
-23.7850840	-39.7404410
-47.7840430	-20.0378660
-63.1127970	15.0679910
-51.0476430	48.3803350
-31.5598260	70.5181460
2.8121893	84.5149830
37.4427850	74.2878620
61.0528320	55.3053670
78.8556770	30.5394390
76.1468460	5.4375670
69.0413430	-21.9603380
56.7633740	-38.2802590
42.6836820	-51.0378830
22.6430320	-57.5171920
5.1326740	-57.4530910
-14.6005150	-50.2908660
-26.4327660	-34.5581020
-27.8711620	-14.5223490
-22.4998540	1.3098539
-7.4354630	7.9975901
8.1549334	4.9930501
18.7571230	-4.0003407
21.0701210	-29.3613060
6.3910076	-43.1149270
-18.9477930	-51.7609250
-46.2664880	-40.9274140
-63.5027720	-12.5225460
-64.5104210	18.3206010
-45.2649940	49.9511400
-10.3802100	67.7545060
25.9199310	59.6520650
53.8411940	37.2646050
69.8986860	0.7963741
58.1537020	-34.5883050
34.6222960	-59.4037650
5.8586711	-64.5158760
-26.4797040	-60.7195710
-43.8612330	-39.3758680
-53.7489610	-16.2171780
-49.2391830	6.1110808
-38.8350400	16.4637220
-26.6971130	24.9679110
-15.2929450	26.1854220
-7.9146077	30.5616850
4.3560958	23.5777980
9.0041082	20.0232000
14.5082120	14.3362750
17.6955880	1.8662546
11.7759040	-10.9819450
3.1092427	-15.7957940
-12.3719610	-17.1686890
-28.7278270	-7.9434441
-30.3743810	9.0827875
-29.5125500	29.3187870
-10.4238610	44.9029760
12.3138060	49.8627440
37.4735070	37.2240060
50.9797050	12.3107770
51.0042690	-10.5380750
35.6530620	-36.7096190
10.6743070	-45.2599790
-19.0150010	-39.7906570
-34.8383630	-21.2214440
-38.6139960	6.2560827
-28.4626840	26.5448300
-10.3496000	41.8673200
13.9562370	40.5544370
33.0555970	30.0023930
49.8665780	13.2857630
51.4726740	-11.4020470
41.1687730	-28.7694150
27.0111990	-41.2901500
6.6214478	-51.9696960
-7.4053873	-47.3186280
-23.3559680	-40.5343170
-35.5367410	-30.9155450
-43.3514460	-13.6755150
-48.3485170	5.7898368
-38.4099540	19.9361160
-29.9483740	34.4681160
-8.0286733	36.8266540
8.9134265	37.4052820
22.4425530	21.6691570
26.4771160	5.2894461
19.9806290	-9.2715502
11.8022270	-18.0926650
-5.8322029	-16.3127980
-17.7363590	-7.7061553
-19.2906060	5.0387614
-17.9290910	16.8873040
-6.5408725	26.2586690
12.6677080	29.1922930
22.8154620	19.1537500
33.7540270	4.3358796
31.0819950	-10.9147440
17.4342860	-22.9274600
7.0411445	-30.0233260
-8.2329002	-31.6039500
-20.8989760	-18.7826240
-28.0633890	-10.4623980
-30.6817320	3.3755772
-25.0916570	12.6256070
-21.6630810	23.8913600
-9.0515531	30.7434440
4.2111037	32.2706940
13.9704190	31.1140300
25.9783150	21.2162440
30.9053690	11.9092540
36.1778760	-0.4413362
33.0106860	-12.7405920
24.2668900	-26.4029130
11.4519950	-31.2859820
-2.6487313	-26.4587950
-12.4412740	-20.8367470
-18.5460030	-13.6487810
-16.5243900	-2.7278438
-9.7002351	5.3770585
-3.6362806	3.7365301
5.1662278	-1.6470725
6.5733658	-5.5158075
2.3279538	-15.7010280
-7.4440437	-14.9511920
-15.4975640	-15.1255740
-24.3611150	-6.9754734
-29.6726970	3.5165271
-28.0494900	17.3855310
-17.0887530	26.9592070
-3.4900190	31.9330280
9.8299216	31.6321190
19.1818990	20.8879230
28.0061540	11.7436150
30.3594550	-3.1488660
23.8209240	-16.4378360
11.8919280	-24.3313390
1.5272326	-27.5914570
-15.0557700	-26.9429030
-25.7514020	-18.7719380
-31.4882650	-4.5760463
-35.0379220	6.7323270
-30.4748380	24.7735640
-19.0627250	35.2665440
-6.2854189	36.9491030
12.2548090	34.7200620
21.8759430	28.0213530
28.5248330	18.9032600
24.4531330	7.6000461
25.6405200	1.3234852
17.5887210	-2.6016980
11.9641860	-6.3630316
9.5395694	-1.3345043
9.1677730	-2.8183218
13.6980260	1.2079617
16.0417550	-2.0445962
19.9409890	-8.4660577
17.9136090	-14.3772380
16.4223180	-19.0382780
8.0763446	-28.2181940
3.8044444	-30.3687970
-5.9900217	-27.7950890
-18.1127580	-27.3301570
-21.0784630	-18.4229660
-29.3983560	-11.5254700
-30.5516740	0.0856246
-26.1582610	11.5641440
-16.7061000	17.3332810
-7.7064721	21.3739410
1.7278055	22.9104790
7.3157853	14.7703310
12.7003580	10.5624250
11.6883280	0.8721956
7.4622207	-5.2108700
3.8879868	-10.5590180
-5.0026661	-12.4588960
-10.5374510	-5.4930672
-13.1507940	-0.5985173
-11.4870940	5.1447061
-5.8357453	10.9474380
-1.8100650	10.2561050
5.8500158	9.3653765
10.9238790	1.9941297
9.2981444	-0.7608316
2.9112067	-7.4206374
-0.2156489	-8.0989197
-6.7970486	-8.3347954
-12.0719610	-0.9995177
-13.0109780	1.1077370
-8.1348797	10.2993770
-6.0261864	15.4903470
-2.8768457	18.7252050
5.7679275	21.4095750
14.6765510	16.7656450
19.2379260	11.2885000
23.3681570	3.1324530
23.0792820	-6.7867213
22.3739810	-14.0248840
12.1062700	-19.5218860
5.9553386	-26.3240500
-2.9066877	-24.2331750
-11.4214480	-17.1049700
-15.8917830	-10.4270490
-17.7656120	-2.6269143
-13.2484910	6.4061331
-5.7403018	9.3620941
2.5626889	10.9656540
7.2601213	7.5384069
11.7942460	5.5239426
6.8787988	-1.5367857
8.4221794	-6.8279530
5.1032626	-9.8804325
2.2987368	-8.1521570
-2.4298488	-6.2395034
-6.9512193	-3.1445233
-2.9621406	-1.9163500
-2.6886011	0.6467799
-2.4033947	-1.4127201
2.5345153	0.7808972
-1.2545829	-3.8755876
-1.9708847	-7.5008299
-4.8319828	-6.3389501
-3.6602849	-8.3866715
-12.3420480	-7.5430319
-15.1781700	-3.8330061
-17.6551290	2.7524864
-17.7468180	5.8123587
-17.2770770	13.6580990
-11.7788830	21.3984460
-3.1153683	19.7797840
5.9553778	17.9329040
14.1792100	16.8145340
15.7014100	8.4166878
17.1741520	1.2695594
9.2561480	-8.8984329
3.0898747	-10.6420570
-0.6584219	-5.5784901
-3.6991804	-5.3784511
-3.8785449	1.3735040
-3.7855234	7.4800160
-1.6672605	11.0597390
6.0463787	6.6252673
6.4065597	8.2348709
13.8373920	2.1880830
14.6196200	-4.6425061
12.5422780	-5.3305136
6.7766857	-8.0843308
2.8969082	-8.9831534
-4.6407552	-12.8782800
-3.7727110	-6.4438888
-10.3468240	-5.5220100
-8.1971279	1.1876018
-6.9958464	5.0579074
-2.6501023	9.6622369
3.8478427	9.9705232
4.7174027	3.1058966
11.3978480	2.6571299
9.3011314	-3.1326753
8.4052415	-9.4090496
-0.1126580	-11.3438060
-4.8059265	-12.2100210
-8.4949409	-10.8253670
-13.6780120	-7.5933623
-15.3413730	-1.5600552
-15.9842030	10.8590340
-8.0296202	11.4223480
-4.9887917	16.9600760
1.4950225	16.8406720
6.5578989	10.5245680
10.7778740	7.7563511
14.6232850	0.9855941
13.1075280	-6.1750304
8.8551380	-10.5204790
3.0798017	-13.0464680
-0.0102156	-8.6636138
-1.8878053	-11.0287140
-7.0092423	-4.2497914
-9.1299437	-3.2023160
-8.5158424	-0.8975380
-9.1135338	5.2757492
-5.0236400	5.8751493
0.9561553	2.6210129
-0.6772411	5.0165856
-0.6705568	-1.5117396
0.4859518	0.2935505
-4.9689725	-3.2672160
-6.1829124	-2.3664865
-8.0512333	4.7450802
-4.6350739	9.8758299
-2.6792960	10.3315020
1.9588946	12.0328770
7.9672061	13.6764290
10.5449240	8.3750509
12.2639060	5.4015917
16.7552110	0.9895433
13.5671640	-8.2438680
6.7050236	-9.3748227
4.7458273	-9.7649380
-0.1433609	-8.8054827
-6.2316176	-9.0280269
-6.7771624	-2.3447251
-3.6276898	-1.5506512
-5.9430076	-0.8785407
-1.8006677	-1.2840156
-2.9348527	-2.2836179
-3.3384991	-1.8736581
1.2178959	-3.1498043
-3.6870289	-2.2653072
-2.7922785	-2.1220515
-5.1618794	-2.1258413
-3.9378953	-3.3351323
-4.6971489	-0.9429682
-7.5396967	0.5501366
-8.3814958	5.4314548
-6.3900078	4.2368958
-1.9769843	7.0330278
0.8841059	6.4768462
3.4379880	4.5990882
4.8278657	-2.1670014
2.8667569	-4.0616057
0.2020044	-4.9965634
-4.5417731	-6.2659567
-8.4436619	-4.0411316
-8.4227019	3.2428195
-9.2058532	6.2571565
-9.4214622	12.4483950
-1.3518467	14.2913100
5.3436374	13.0613150
9.1827914	14.5865340
13.9603190	7.5811583
16.1235490	5.0621627
14.6685100	-2.5032201
12.6349300	-3.5825821
9.1950668	-7.6493922
4.3374081	-12.5729380
-0.4694781	-9.6192213
-1.4829210	-7.3351354
-4.5741539	-8.0003694
-0.1440902	-5.6530917
-4.0194008	-2.4409250
-1.6118689	-4.4094327
-2.7672007	-5.5094691
2.0203977	-3.5136586
-1.4820165	-5.8544985
-2.7243936	-5.3873298
-7.6703845	-6.0102837
-7.6134030	-4.0263702
-9.6131142	-3.2780444
-11.3479120	6.0777219
-11.4422280	8.0682617
-4.2252909	10.0151720
-1.4978471	15.1235100
6.2076868	12.9136490
10.9974160	9.4977543
9.4249519	7.9379986
12.3717780	0.3393180
11.9183980	-2.6878881
9.9982432	-8.9647952
5.5514421	-8.0223384
-0.1688497	-10.0930350
-3.8838018	-9.5960870
-6.5271421	-4.4628775
-10.8882410	0.6389447
-7.4993481	2.8925280
-6.4544959	5.0346507
-5.2947540	8.5961617
-0.4738184	11.3079870
2.0649192	6.5647159
7.4631909	5.6183963
5.7850183	-0.8032624
8.2826051	-3.2160035
4.0149940	-3.8471638
0.2047261	-9.5951241
-3.9705332	-8.8290371
-4.7421418	-0.4777861
-3.8080053	3.1572535
-2.2055404	1.4986867
0.6768215	5.9781456
1.9008272	6.8673027
5.7337622	2.6127173
9.9207812	-2.2116308
4.7833498	-4.2532985
2.7785680	-6.0088904
1.3689469	-9.8116623
-6.2515840	-7.1852337
-7.0393434	-6.2938539
-7.8003028	-4.2136636
-5.3886494	3.0512177
-4.8730161	5.3268037
-3.5786713	4.5530284
-0.4720321	4.0410327
0.7437956	7.6108183
5.7675784	0.9712058
2.3172432	-0.1500897
6.7197977	-1.2000870
4.9690909	-4.6963426
-0.1479982	-3.1203399
-0.1859320	-3.6838605
-0.7835770	-2.0089315
-0.1742552	-1.6526181
-5.6543036	-3.8186831
-3.1315475	-1.3589388
-3.4984393	-3.7545497
-4.6041826	2.3942010
-4.8951198	1.6360726
