jMRUI Data Textfile

Filename: dataset7_nWS.txt

PointsInDataset: 2048      
DatasetsInFile: 1         
SamplingInterval: 2.5E-1    
ZeroOrderPhase: 0E0       
BeginTime: 0E0       
TransmitterFrequency: 1.2322E8  
MagneticField: 2.9E0     
TypeOfNucleus: 0E0       
NameOfPatient: dataset7_nWS
DateOfExperiment: 
Spectrometer: 
AdditionalInfo: dataset7_nWS
SignalNames: dataset7_nWS.txt;


Signal and FFT
sig(real)	sig(imag)	fft(real)	fft(imag)
Signal 1 out of 1 in file
49922.3680000	5.0243231
49703.1820000	9.7012834
49464.1820000	8.4087327
49225.0490000	-7.7694027
48988.8960000	-0.6104443
48770.7750000	-7.1306170
48548.9190000	-9.1080907
48299.3970000	4.7982319
48093.9130000	8.0690006
47859.4210000	-6.9493626
47631.7880000	9.0226274
47397.3110000	-11.0500740
47177.3740000	-7.0445193
46973.4840000	-11.3446550
46735.2690000	6.2187355
46516.2510000	8.5857001
46303.9220000	1.8860806
46091.5550000	-5.4515923
45874.5060000	10.5067940
45649.5380000	-0.6092570
45443.0170000	-7.1838792
45223.1120000	9.0307269
45019.4980000	-4.7588488
44811.2630000	-5.3854893
44590.1920000	0.2295585
44385.4680000	-8.3335044
44172.9520000	-5.8087577
43963.6590000	6.7041949
43764.1520000	8.1835446
43561.3510000	-8.1860329
43346.5990000	7.9410123
43139.5260000	-1.4034067
42936.8070000	-4.0130709
42745.4210000	-10.0127240
42536.6470000	6.1452026
42342.2440000	-11.6157990
42138.7120000	-0.6613837
41930.8290000	-5.8187078
41737.4390000	5.9169005
41545.8620000	-11.3539470
41344.6240000	2.6942601
41161.6110000	9.3637713
40960.3050000	9.6001176
40763.1310000	3.7853115
40574.7550000	10.4588300
40393.0300000	-9.0983599
40206.8760000	-6.5527650
40020.7000000	10.5377020
39819.0260000	5.6164069
39646.9610000	-8.5039968
39450.2580000	7.2549817
39270.5070000	2.5581577
39075.8400000	-8.6688920
38891.9860000	-3.2636183
38703.3520000	0.6373842
38526.3480000	-5.8678791
38357.4910000	-5.0328835
38171.6110000	-3.4956330
37990.1060000	-0.2650460
37808.6840000	2.0369866
37642.2520000	3.3361834
37459.4670000	-5.1263469
37284.7900000	-9.6937195
37097.5750000	-8.3001009
36929.9820000	-0.1145646
36751.2230000	-8.6005377
36574.8270000	-7.6457451
36423.8820000	-7.5929902
36230.7810000	0.0578841
36069.1490000	-6.6202504
35893.9970000	-9.5605643
35743.0940000	0.9399629
35566.7690000	-2.0699819
35407.5320000	10.6143980
35219.4170000	-0.0255445
35057.3630000	2.8459300
34897.2530000	8.2834442
34746.8420000	9.2534015
34574.7770000	-9.4007557
34414.7560000	7.1649396
34253.5620000	5.9555962
34099.0270000	-2.8211336
33932.7840000	10.3631540
33766.5320000	8.5117017
33604.9760000	10.3361950
33455.9700000	-4.0518473
33303.5240000	2.5737629
33129.0380000	-10.9512640
32988.4110000	4.8813245
32822.3220000	-11.4734210
32680.0780000	-6.4878447
32521.2190000	3.3096882
32363.1680000	-1.1984306
32224.3040000	-3.4208375
32057.4090000	6.4091209
31923.0100000	-2.2299502
31750.2300000	4.3372867
31613.8100000	7.7113381
31459.5900000	0.2691147
31324.9330000	2.2122052
31171.2670000	2.5654194
31019.3410000	-6.1872359
30882.7990000	-3.7329891
30726.3100000	-0.6613781
30589.5890000	-4.8128908
30432.2260000	-8.6219757
30307.6170000	8.4978236
30148.2470000	-3.8816096
30006.4650000	4.5324445
29874.3310000	-1.9858045
29733.3540000	-0.0404169
29599.1680000	-9.7296959
29458.9880000	-10.2262180
29313.0810000	1.8276255
29189.9080000	-0.7427859
29048.9450000	9.4263761
28898.1760000	-9.4567104
28780.2110000	-8.7248816
28636.0540000	-0.5773883
28490.2330000	-8.8465500
28360.2740000	2.0660728
28236.9640000	1.3356725
28109.9870000	1.6690677
27964.8310000	10.0571700
27832.2910000	10.2208570
27712.8440000	2.9699634
27564.4040000	5.6279242
27444.0530000	-8.6460156
27324.6490000	8.7290900
27195.2280000	-10.7282840
27059.5240000	10.9545450
26940.1280000	6.8246966
26815.1840000	-1.1617540
26668.9220000	-4.4320644
26547.0870000	5.6649908
26427.4170000	8.4341207
26300.0650000	8.8486344
26176.9280000	-5.6691343
26054.2890000	6.5071576
25940.8770000	-11.0628690
25804.5500000	6.2309280
25686.0810000	-9.1943325
25577.6810000	-8.4998345
25460.3220000	-4.4783287
25341.8060000	-6.3112979
25208.4730000	10.7514670
25099.5770000	-6.8363865
24972.7740000	5.7913810
24848.4210000	10.8316430
24736.8440000	3.0310996
24630.7580000	-7.3468640
24515.5870000	6.8611949
24405.0770000	-8.5935959
24280.6800000	-7.6184232
24174.1430000	-8.1501725
24063.9010000	5.4642235
23930.9360000	-3.9524842
23837.0510000	0.9122361
23719.3030000	1.1046788
23604.5780000	-4.0864812
23485.6960000	2.9602581
23386.9400000	6.0763781
23280.1960000	-10.7812850
23150.7740000	3.9687311
23046.9880000	3.5200913
22949.8350000	2.1380036
22833.1610000	9.7540480
22735.1190000	4.9962337
22623.3860000	-4.2872964
22512.8960000	4.4922613
22406.2900000	4.7804295
22296.9720000	-4.3244134
22197.3980000	11.3656940
22106.4970000	-2.2953336
21997.2540000	6.5143725
21889.9390000	-2.1587793
21794.7650000	3.0053195
21682.9670000	-5.1720219
21579.7640000	-10.7746310
21477.8560000	-0.0631239
21380.1910000	6.8514159
21278.8000000	-0.9600318
21190.0130000	-1.7652005
21081.6060000	1.4449599
20985.8780000	9.9269169
20870.7340000	-7.9150546
20771.5600000	7.7621386
20690.6010000	-2.1798349
20593.3700000	-4.7637278
20490.2240000	-3.8599965
20406.3820000	-2.1192006
20300.9520000	-7.1900887
20212.9600000	-6.9588856
20109.6210000	-9.7400258
20021.9150000	3.0704745
19928.5660000	3.3952751
19831.8300000	-5.6017074
19730.0990000	-11.5220280
19641.8310000	3.4312016
19545.9990000	9.1461003
19455.4270000	-8.3687927
19374.9320000	-5.5279381
19277.7000000	-0.7401556
19190.9280000	-4.2853772
19082.8210000	5.8068728
19004.6140000	6.4970406
18913.4010000	5.2793783
18817.2100000	1.6062652
18740.8460000	7.8395231
18637.9530000	-9.9052120
18550.3100000	4.6119027
18477.0940000	2.4282199
18377.2940000	-7.2561785
18294.7900000	11.0004300
18207.8440000	8.9812628
18119.5740000	3.4807143
18038.8540000	-3.2500494
17953.5120000	5.4266937
17878.4890000	4.4296657
17783.0580000	5.9130555
17699.0080000	-0.3716947
17613.6190000	-0.8705670
17534.7320000	-5.6084574
17451.5480000	6.6063653
17374.4680000	1.1768926
17299.0050000	5.7107666
17217.6770000	-7.8789885
17129.1510000	5.9686847
17052.8040000	-0.4016825
16978.3390000	5.6469042
16883.1050000	-6.8923391
16809.9450000	8.0193371
16723.2790000	9.1923394
16652.2710000	1.0655754
16573.3730000	0.4815889
16501.6100000	10.9374880
16425.6540000	2.2499148
16341.9550000	3.7609633
16264.0860000	7.9935198
16188.0240000	11.1816220
16102.6110000	5.9357121
16040.5000000	1.8893643
15962.7060000	-3.7708748
15895.1040000	-10.6155500
15803.9590000	-3.2406168
15736.1420000	-10.2009020
15666.7810000	10.5254610
15586.5160000	-6.3491341
15510.9340000	-5.6233304
15438.7770000	9.7809100
15361.5700000	-1.3009619
15298.9880000	-11.5468190
15221.1500000	3.7305846
15150.2700000	1.4878927
15085.1080000	1.0061856
15002.5660000	-6.9298038
14945.1770000	11.0267950
14872.2260000	8.4384512
14799.0550000	0.9367715
14723.7560000	-1.7596633
14669.4120000	-6.1832987
14596.1210000	-7.4165634
14526.6950000	2.4391375
14449.8780000	2.2494283
14381.9840000	11.7503080
14313.3470000	-1.7209694
14255.3120000	7.0724716
14187.7680000	6.3279497
14116.8200000	0.8648619
14064.4580000	5.7921132
13990.8050000	8.2715673
13920.6270000	-9.9067955
13867.8710000	-5.8291900
13802.9940000	-11.5669120
13735.8540000	-4.5391653
13657.9110000	8.1093890
13596.7340000	-6.8136253
13526.8750000	-9.0505607
13463.0310000	-7.2826547
13414.8080000	-8.2859909
13335.0350000	8.5756593
13280.8840000	-8.0992162
13224.5250000	-5.0525092
13164.7680000	6.2876156
13103.2780000	11.3420260
13037.2320000	2.8148405
12970.6010000	8.4558818
12909.3020000	-2.7956297
12847.7710000	7.6458455
12797.5040000	-4.4879216
12724.7070000	-6.8258088
12674.9080000	-7.5799496
12617.1000000	-3.5102633
12550.6810000	-3.4631787
12500.0260000	-10.1785950
12442.5550000	9.0523203
12370.4790000	0.2661224
12308.7230000	-3.5671629
12259.0440000	-4.1972567
12204.3770000	8.6460766
12143.7120000	2.6832386
12093.4900000	-9.9919732
12025.2170000	-7.4993588
11968.9490000	7.8757175
11922.0650000	1.0972639
11872.0770000	7.8130613
11811.1000000	7.4008583
11752.8050000	0.5407528
11696.0410000	-5.7375921
11646.9150000	-5.5983595
11597.5840000	-8.5959978
11528.6260000	-7.7715946
11473.9710000	-11.6467480
11417.7960000	-3.7522171
11371.8680000	6.5947685
11313.2730000	-3.6669346
11266.9400000	2.2047573
11216.9880000	10.8842330
11165.1270000	-5.0409341
11099.5040000	-8.6635242
11059.8040000	4.0929533
10998.3710000	-5.9128651
10960.6620000	-3.6425237
10897.0300000	8.0142661
10840.8370000	-3.1504393
10793.8820000	-0.1381202
10738.5890000	-6.7314809
10685.0690000	-2.8870964
10648.0380000	-3.8899264
10604.8650000	-5.9099896
10536.3890000	7.7674192
10501.9510000	4.7251252
10437.1730000	-2.6450534
10390.7740000	-5.0090491
10358.4280000	-7.0093038
10289.3530000	7.3246522
10255.4440000	2.4530956
10204.6670000	-1.4747460
10154.8430000	2.4736135
10109.3940000	-10.5148430
10066.5070000	5.9852975
10012.2150000	-10.3801390
9964.4509000	9.9142289
9912.8132000	1.9267074
9874.5594000	-10.6834500
9824.9232000	8.3328699
9776.9588000	4.1050147
9733.3683000	11.0334050
9679.0865000	-1.4752319
9641.1831000	0.3610180
9601.2947000	11.6196110
9544.0781000	4.5147555
9498.1834000	4.2294402
9468.5246000	4.9651502
9406.1254000	10.4891770
9364.0057000	3.2331676
9329.6171000	-4.5436934
9285.2118000	1.8716014
9230.9825000	-4.4125654
9194.8169000	-4.5991463
9158.9420000	-8.4643438
9102.1692000	5.9730474
9078.1015000	-11.3614490
9025.6572000	3.1596430
8988.3590000	-6.7041072
8934.9496000	-3.0877051
8905.7521000	-10.8054920
8859.5758000	-8.7842033
8826.2037000	9.6202752
8776.2865000	4.4187249
8724.8092000	-11.0052980
8695.2268000	6.9478643
8651.5408000	2.5314847
8613.5601000	3.7157590
8570.1538000	8.2219442
8529.9960000	-4.0161222
8487.7403000	-6.2373077
8449.4719000	11.5398430
8408.1355000	7.3168874
8370.4446000	-2.3743091
8341.1254000	-10.1845090
8290.0915000	2.7466039
8246.5094000	10.8403520
8222.4117000	3.2935296
8171.5613000	2.0578264
8147.9327000	-5.4726477
8103.5876000	-9.1340626
8060.2179000	-7.5744652
