jMRUI Data Textfile

Filename: dataset11_nWS.txt

PointsInDataset: 2048      
DatasetsInFile: 1         
SamplingInterval: 2.5E-1    
ZeroOrderPhase: 0E0       
BeginTime: 0E0       
TransmitterFrequency: 1.2322E8  
MagneticField: 2.9E0     
TypeOfNucleus: 0E0       
NameOfPatient: dataset11_nWS
DateOfExperiment: 
Spectrometer: 
AdditionalInfo: dataset11_nWS
SignalNames: dataset11_nWS.txt;


Signal and FFT
sig(real)	sig(imag)	fft(real)	fft(imag)
Signal 1 out of 1 in file
48756.4190000	-3.1041859
48512.9640000	4.5580322
48287.5650000	-1.6066359
48065.5110000	-8.9433250
47823.6070000	16.2390240
47592.1320000	8.7071598
47374.3710000	-11.0822470
47150.5500000	13.5719570
46933.0680000	-11.0317830
46703.1340000	-16.6936490
46507.9210000	-8.3815344
46277.9480000	-13.3629210
46070.8880000	1.3711208
45862.2260000	1.1901942
45616.5840000	3.8377846
45407.4740000	0.4074632
45205.4200000	4.0048548
45000.5550000	13.6744880
44784.8090000	-3.5828614
44579.2950000	-10.4918330
44344.6150000	-16.1760380
44153.0920000	12.2791730
43946.7280000	5.1682484
43745.1590000	12.1186380
43524.2550000	-9.1800692
43336.1310000	-15.0057740
43133.7460000	-14.3939740
42902.1550000	-14.2706200
42725.9540000	-10.8742350
42520.6230000	6.0988866
42309.2280000	15.2557930
42109.3480000	8.3679546
41906.1500000	11.2990390
41731.6620000	-5.3676203
41543.0510000	3.1085617
41329.1340000	-10.5143070
41133.2040000	-10.6973210
40940.5620000	0.6647570
40740.3870000	11.0377430
40566.7680000	12.0294360
40371.4860000	8.5010595
40188.4740000	0.1707559
39988.0390000	16.9791620
39798.8620000	6.2649626
39615.5190000	14.9534450
39433.4390000	14.3877100
39241.3610000	10.0994160
39051.3050000	-14.0763170
38889.3760000	8.3473038
38693.4090000	-9.2153180
38518.3900000	-2.7511282
38315.3720000	-16.3404490
38136.3160000	-14.1591850
37979.9000000	-3.2579902
37776.6370000	3.5001629
37627.3970000	-4.8533904
37450.2020000	-8.1224259
37277.8950000	9.8927058
37075.2820000	16.9187110
36911.5900000	0.2451914
36731.1030000	9.6848250
36568.7060000	-11.9605050
36403.6250000	5.7366001
36224.1780000	16.2475650
36049.0390000	3.2659926
35892.7530000	3.7667266
35710.3700000	3.1829321
35554.6910000	1.1486691
35370.1380000	-16.9302790
35217.8370000	-7.4582391
35049.1960000	-5.6594092
34882.1600000	-6.7753000
34722.7760000	12.1941730
34558.8950000	11.5271910
34403.7810000	-5.8853356
34230.1490000	-15.2187380
34055.1760000	-11.9688980
33921.0950000	14.3784320
33740.6020000	-15.2881770
33582.6570000	12.8355450
33420.0220000	-14.4541140
33283.4840000	6.9478167
33121.8280000	-16.2715470
32974.9560000	1.3135445
32803.9290000	-12.0066470
32641.9010000	9.4218364
32491.3710000	15.1841820
32340.0300000	-17.0996150
32208.4200000	-3.2428883
32046.3320000	9.3083367
31880.8290000	13.9394790
31752.8130000	-2.2981730
31581.7260000	-3.7011676
31435.2080000	-2.2621469
31300.8340000	-5.4112413
31138.7980000	6.1847911
30988.5670000	3.2335012
30871.7920000	0.6416974
30729.3260000	-9.0423454
30559.7980000	-12.4702570
30441.7610000	-4.7695450
30280.4100000	6.3896884
30126.2570000	-2.9113822
29994.2940000	-0.3086881
29848.1470000	13.2221020
29733.3950000	-3.6698572
29587.3100000	-16.2755380
29424.2870000	-15.4607230
29315.3850000	15.1381480
29149.6710000	9.8492816
29029.1850000	15.5348530
28896.3310000	11.9362020
28757.7890000	7.3303419
28604.0920000	11.2023030
28496.5260000	-12.4135310
28344.0160000	1.4626859
28210.1230000	4.9022170
28090.8040000	-0.0749882
27959.1840000	-0.7692073
27822.1710000	15.6713660
27677.3810000	13.9097960
27549.8040000	3.1540421
27426.8420000	-16.2047340
27316.1920000	-4.1569519
27163.3520000	-14.4502150
27052.6850000	12.8940070
26929.9500000	-1.4906998
26787.4900000	13.7649370
26648.7980000	-15.4803260
26545.0120000	-0.0966511
26406.2380000	-17.0982590
26274.7670000	-9.3126617
26175.2520000	-8.2610456
26044.4560000	-3.8723333
25924.5280000	5.1098130
25815.6580000	-10.0009500
25667.2250000	-6.1576244
25573.8760000	2.2652678
25445.7220000	-6.5925467
25315.1150000	-16.5645210
25192.4970000	-2.0241346
25095.0170000	-11.5155500
24966.3870000	-11.4799190
24837.7180000	9.5003115
24722.0400000	11.6413790
24616.5910000	-12.0307040
24505.3070000	-11.2067210
24387.8980000	-3.6509589
24273.4410000	-2.5322904
24138.4220000	-15.7424260
24022.5650000	4.2013865
23938.5650000	-5.4674234
23818.7640000	9.9522994
23689.2290000	11.9366300
23584.0550000	2.8715742
23489.7830000	16.6638920
23367.1640000	14.4169140
23249.1110000	-14.5316260
23136.0970000	-6.8371558
23046.6740000	4.3299962
22926.9220000	5.0393719
22815.3160000	5.1412080
22702.8740000	-2.5812692
22602.8770000	15.7833070
22513.6490000	13.3943520
22398.5530000	-13.5601520
22284.4410000	8.5471040
22195.7380000	1.1254941
22097.6220000	-2.8767501
21983.1270000	-14.5412850
21894.1330000	-2.7723610
21787.9230000	8.9580680
21663.2780000	11.8794460
21557.1500000	-11.3443350
21477.9300000	6.2200723
21368.1300000	3.6722275
21280.2260000	0.4599212
21182.8630000	-7.3450235
21069.7190000	-1.1143612
20962.5520000	5.1521938
20876.5860000	-6.2039376
20788.1360000	-4.5129449
20681.9170000	-15.5028700
20583.7070000	1.1209999
20470.3100000	-6.0523743
20386.7490000	-9.7505567
20277.7660000	6.8063889
20208.8660000	10.7271000
20083.5190000	11.3975170
20009.9610000	7.2832386
19920.2250000	-3.6366774
19828.6650000	-3.2045249
19711.0980000	11.2604130
19615.5610000	4.2123922
19530.4570000	-3.3772417
19462.7640000	4.2716291
19357.1540000	-7.4744973
19256.6990000	-12.9431920
19184.2220000	6.0400795
19099.6370000	-1.9692043
19000.8440000	-15.9940870
18908.2390000	-15.6698760
18809.5120000	-13.0291780
18710.0070000	14.2185220
18624.6400000	-1.6763362
18557.9540000	-12.1836550
18471.6520000	3.1038846
18381.7120000	3.5411219
18294.6400000	12.7572020
18210.7480000	12.6372950
18131.9070000	-10.7157300
18018.6610000	-14.6439830
17954.4150000	-14.1501300
17872.0960000	-2.2825507
17775.5550000	-3.8702139
17698.2590000	-6.3763912
17596.6560000	-11.1490780
17542.8410000	10.1702640
17464.0190000	-15.0153830
17352.8910000	-12.0883640
17283.9770000	8.8014077
17208.7760000	12.8533410
17115.3810000	5.8880329
17042.3430000	-14.7983540
16951.6540000	8.2050173
16870.3510000	13.0163400
16813.7560000	12.6170550
16731.2630000	-14.9065160
16641.9420000	16.5633830
16575.6950000	0.7147181
16502.7600000	-3.6123657
16416.9160000	1.5127565
16322.5180000	-13.1197060
16268.7010000	12.1444770
16174.2510000	0.2761541
16101.7340000	4.0935327
16017.3260000	-13.4052090
15942.4670000	-12.5101380
15882.3650000	12.5548810
15810.6620000	-1.2445880
15727.3910000	-5.9636058
15657.6320000	3.5507221
15566.5400000	-1.4668513
15517.3550000	14.6576420
15438.4980000	6.5377355
15352.0370000	8.0270065
15286.9310000	2.2529208
15225.8490000	-6.5722840
15154.6890000	16.0844290
15086.5720000	4.0123031
14996.0060000	-16.9628510
14928.2920000	16.4881470
14857.9230000	5.3750488
14797.8990000	-13.4632140
14732.5480000	10.2943270
14662.6370000	-10.2498490
14601.6830000	10.1574880
14518.6210000	14.5824530
14451.6490000	-16.3463020
14377.0990000	1.2562942
14301.9560000	-15.1337610
14260.9760000	-8.5481138
14190.6080000	4.4552347
14110.1970000	8.4902800
14036.7240000	-13.0281240
13981.3720000	-11.1684000
13915.5400000	-1.1137250
13834.1870000	0.5800271
13775.6770000	4.6590378
13722.4850000	7.3923722
13663.2560000	-0.2592905
13591.9900000	-8.8553651
13537.0840000	-10.1762760
13450.6270000	7.2107371
13417.4240000	-3.9742024
13341.9710000	7.6261288
13271.9960000	-15.4970340
13199.0080000	-14.9832190
13147.4980000	5.3657958
13085.6130000	-6.3462054
13042.8030000	-6.2224130
12963.9390000	-15.1935490
12908.3500000	-0.3973628
12838.2660000	-0.1955538
12770.7060000	8.3751783
12735.8410000	11.5386940
12673.0930000	11.7753350
12605.0780000	8.7511519
12529.8950000	7.3199517
12471.5800000	-0.6503826
12422.7910000	0.8254335
12376.0860000	-11.8839120
12297.1750000	15.3527760
12264.6170000	-3.5205676
12211.9960000	2.7753506
12146.8270000	-14.5124550
12092.3760000	-2.2194787
12015.9400000	-2.1027952
11977.1690000	16.5808240
11918.6300000	-7.4380483
11843.0920000	-12.2186990
11784.3400000	7.4602866
11749.7040000	15.9841840
11683.8490000	-9.0624576
11643.5120000	-2.9952639
11587.0780000	-7.9848780
11519.9860000	-2.2748992
11473.6820000	-0.0400607
11416.3480000	2.3922884
11361.6870000	3.2260802
11319.1020000	-13.6796790
11272.0550000	-12.3132910
11196.7180000	14.2448150
11149.3020000	-5.2646052
11103.4430000	-6.8738926
11034.7950000	-11.7210220
10983.5490000	6.1380417
10959.1930000	-12.2130300
10895.9390000	5.5226308
10854.9400000	-7.5253723
10793.1400000	-9.6886672
10750.8580000	10.6694570
10673.8370000	7.1895412
10625.5950000	-4.5124263
10578.0520000	10.2950220
10544.7400000	11.2951970
10490.5420000	-7.7277636
10444.0080000	7.2472828
10386.7870000	-4.5416696
10336.6040000	-4.2796562
10295.4160000	-2.3671382
10241.9870000	-16.4435420
10202.5150000	13.2572250
10140.9420000	16.9991500
10107.5590000	12.0699970
10067.5970000	13.5984050
9991.5521000	7.4544932
9963.7689000	4.8641247
9914.3909000	4.3948364
9850.5460000	3.8315357
9814.6281000	-7.9595020
9759.0366000	-0.9326638
9742.6505000	10.0053680
9674.9339000	-6.6192654
9640.5790000	10.5595150
9585.7757000	-12.8974430
9551.5012000	-13.0855030
9489.2819000	-13.7332810
9462.6798000	-7.9303421
9405.3549000	5.4433575
9367.8607000	-4.4378544
9331.8702000	10.8112390
9279.7102000	-4.7560905
9242.8088000	-3.4977534
9199.8829000	6.2312996
9145.1530000	14.5706130
9092.6969000	-7.5262431
9054.1126000	14.1664480
9022.3263000	7.2184845
8968.6065000	-10.4475630
8921.8989000	-2.3208450
8904.4425000	9.6739607
8860.4982000	-10.1280770
8805.7492000	-13.4756910
8775.1940000	5.9148594
8726.8074000	-11.8605370
8686.1843000	-13.5153630
8631.2966000	14.4615250
8592.2753000	5.8295159
8572.3518000	15.4884340
8539.0096000	13.8475810
8499.3561000	11.1627330
8436.3664000	0.4613179
8416.0470000	10.0407400
8365.5267000	16.3522400
8323.9286000	10.9949820
8301.7914000	-15.5189710
8261.9257000	4.0172633
8209.3996000	-16.2323670
8158.2166000	-11.2836020
8128.6428000	-3.7771776
8089.1062000	-15.6743370
8047.9506000	-10.5170110
