jMRUI Data Textfile

Filename: dataset24_nWS.txt

PointsInDataset: 2048      
DatasetsInFile: 1         
SamplingInterval: 2.5E-1    
ZeroOrderPhase: 0E0       
BeginTime: 0E0       
TransmitterFrequency: 1.2322E8  
MagneticField: 2.9E0     
TypeOfNucleus: 0E0       
NameOfPatient: dataset24_nWS
DateOfExperiment: 
Spectrometer: 
AdditionalInfo: dataset24_nWS
SignalNames: dataset24_nWS.txt;


Signal and FFT
sig(real)	sig(imag)	fft(real)	fft(imag)
Signal 1 out of 1 in file
49938.1180000	0.3708629
49694.7420000	12.6260570
49475.6210000	22.6007070
49250.6020000	23.3010580
48976.9810000	-10.6817600
48759.0980000	-6.2507910
48555.1170000	12.5558400
48306.5640000	15.3978260
48081.5360000	-17.8226360
47864.6070000	-21.8532240
47617.2850000	8.8261296
47399.0740000	16.8770660
47170.5590000	6.9178830
46954.2510000	-7.7165912
46748.9890000	12.0306560
46522.2920000	-20.6023930
46288.4920000	-22.5349610
46082.7390000	5.2548327
45867.8740000	4.5828424
45662.0060000	-12.3607130
45455.9160000	9.9830964
45249.1460000	10.1331640
44992.8010000	-6.1274524
44791.4280000	10.9943170
44572.5650000	12.1743250
44396.0590000	-22.7079410
44170.9830000	7.6709316
43949.2120000	-0.7915536
43764.8210000	-18.3095710
43538.9630000	14.2611120
43336.5730000	19.6626170
43138.6750000	-0.9053377
42957.1760000	11.9296790
42728.9370000	-9.0289980
42544.2860000	-16.1977860
42357.4960000	-7.9851364
42120.9160000	4.2481129
41939.9150000	-12.5721930
41757.7800000	19.7712860
41570.6200000	-20.3935370
41348.1370000	-19.4486960
41167.4430000	7.2683258
40962.2370000	-0.3197990
40761.3780000	12.2150770
40586.8170000	-12.1170300
40403.2000000	22.2035910
40182.6520000	9.4645911
40018.7470000	22.6300360
39803.8620000	14.2310300
39639.3310000	0.4447492
39462.6380000	-12.9626730
39263.2560000	14.1278560
39062.3810000	14.6077070
38894.6590000	16.6606120
38691.2570000	5.0841299
38540.5400000	4.9742637
38330.2940000	-16.7405750
38166.1830000	-22.1254570
37968.8340000	-7.6834988
37809.0930000	-8.1190243
37655.8810000	18.7484310
37477.4170000	-5.7293387
37263.5490000	19.2408970
37123.4040000	-6.1533615
36937.9680000	-12.9435220
36744.3480000	9.8334336
36590.3420000	-8.7916196
36428.1700000	8.7601021
36223.9010000	-20.1357820
36049.1060000	19.4359370
35921.0830000	-2.0412168
35755.6790000	-17.5403920
35586.9770000	-1.7931643
35391.1460000	-12.0432850
35216.9650000	-7.1512145
35064.6380000	14.6307690
34915.7550000	18.2223350
34734.5770000	4.8614977
34595.2540000	9.1754930
34409.4380000	-11.7726020
34251.5150000	-2.4078612
34064.5430000	-6.4262131
33949.0030000	7.5266708
33747.6820000	-4.4518634
33603.3110000	-17.2260880
33461.0850000	-9.7874648
33293.1530000	15.6189760
33154.2040000	-12.0171560
33003.5740000	6.9139279
32814.2640000	-21.6792840
32695.0670000	-14.7848290
32541.2510000	-11.9872750
32386.3080000	1.0685618
32199.3210000	-15.4836920
32075.9030000	-17.2489720
31916.3080000	1.0223939
31778.4080000	14.8202600
31596.0120000	3.2558952
31458.6030000	19.3561300
31301.6980000	7.9635509
31174.8460000	-5.7407256
31034.6330000	-14.3545790
30892.6580000	-15.9399100
30734.7490000	-4.9430320
30577.1640000	-13.3313420
30453.5210000	23.3420890
30285.0160000	17.5643750
30151.8620000	20.1521110
29993.4090000	-22.9047400
29883.3540000	-17.1335790
29746.2740000	1.2237943
29579.5360000	0.6562538
29464.1990000	-6.0875100
29309.5810000	6.5122684
29195.3440000	16.5145860
29038.1990000	0.3384954
28905.0240000	21.2977430
28770.3080000	-1.1187927
28617.1060000	-10.8029410
28513.0160000	-11.8261390
28385.1860000	14.7203910
28231.0010000	-12.2808270
28098.8120000	10.0456700
27955.0420000	-6.8216209
27834.7370000	4.2850727
27701.1910000	-21.3780240
27596.5440000	-8.0318097
27466.3730000	-21.8812980
27295.9130000	23.1960040
27208.0710000	0.7033194
27056.2010000	3.6589315
26922.2630000	12.6312760
26810.6630000	-6.9472595
26674.2720000	-21.6445700
26548.1850000	1.9927892
26421.8670000	17.9537400
26326.7210000	0.2102925
26172.9220000	-3.1157019
26048.1850000	22.4241310
25928.5320000	21.8393220
25832.4580000	-12.0625620
25692.0880000	19.4123920
25552.9820000	15.5936360
25441.5010000	-10.4251230
25322.9660000	-12.2421310
25216.5760000	-3.9176707
25114.3200000	3.5134702
24999.0770000	21.3890910
24877.9400000	-12.4688070
24737.9570000	6.4670743
24604.7970000	-18.9404790
24508.5700000	-10.7370310
24397.5380000	-16.2006950
24274.5430000	18.1037850
24186.2500000	-3.7008897
24074.5910000	3.8543870
23928.2330000	11.2313780
23847.7050000	-14.2549960
23725.1880000	5.4358257
23614.6330000	-19.9145660
23511.2190000	20.5237470
23395.2100000	15.5432950
23287.4360000	11.2921310
23176.7010000	-5.4903648
23038.1520000	8.1758605
22935.1010000	11.7584470
22823.0410000	11.2794960
22720.4470000	17.6323800
22616.8560000	15.2642030
22536.2220000	10.8946720
22431.5910000	-12.5001520
22314.7890000	-17.9854430
22220.3230000	-21.0364050
22078.0190000	-3.8557351
22004.1470000	13.3467020
21888.1930000	15.6707010
21767.2380000	7.4714679
21698.3700000	-22.9969580
21579.8710000	17.7368500
21489.0100000	4.9911448
21399.5350000	-21.9531750
21274.3640000	2.3188753
21198.5420000	14.7881600
21072.9560000	21.3663970
20996.4040000	2.2391448
20899.1540000	-17.7260970
20798.0690000	2.7411373
20700.0830000	6.1294045
20592.9830000	-22.0428770
20493.7740000	22.4016110
20397.1440000	-11.3412150
20309.2860000	19.2389280
20219.1210000	-7.6680111
20087.6880000	6.1337790
20020.4560000	14.5909840
19922.3140000	15.0489180
19844.3150000	4.2626099
19740.0880000	-23.0399420
19652.6610000	-11.9883780
19541.4970000	21.0055830
19438.7160000	3.7203444
19347.8750000	-18.6950010
19265.4390000	10.0630320
19171.5320000	0.9116881
19097.4770000	-8.2202541
18988.7330000	-6.4808953
18892.3090000	-2.0238351
18824.6460000	-8.4948440
18726.3200000	9.6907274
18626.0020000	-4.2480561
18538.0660000	17.0690600
18478.9180000	-8.2976959
18383.5790000	9.4069532
18282.0510000	-4.6779823
18200.3630000	3.4531366
18149.5280000	-20.6888800
18045.0730000	16.0996680
17936.6500000	18.5702060
17877.6720000	-11.1307590
17781.0530000	17.3547530
17694.1130000	-12.5523370
17628.9600000	-19.2706440
17548.5420000	8.3177857
17480.9290000	-4.7037976
17366.2530000	10.1528910
17276.3990000	-22.2854950
17221.7170000	14.1833460
17151.8610000	-8.6859727
17060.4120000	-9.3547771
16953.0450000	14.0387890
16882.2260000	8.2640689
16804.8860000	1.3965803
16752.9490000	4.5184769
16640.9100000	-3.5095846
16553.5000000	-12.7550580
16485.8850000	4.4394526
16428.8820000	15.7489790
16334.5210000	16.1489470
16251.8640000	14.3691690
16179.9830000	5.6619155
16127.5990000	-18.1770070
16060.9030000	0.4249477
15950.0530000	7.5294239
15879.0020000	8.7621263
15817.7350000	7.4895830
15722.0430000	-1.7828402
15680.4490000	-18.4112870
15582.9890000	23.0551760
15506.9730000	-16.6824330
15444.2690000	19.8388520
15374.5210000	5.0518270
15307.8670000	10.0175590
15217.3990000	14.4490980
15145.6720000	-13.8260910
15092.1150000	-7.5036796
15025.8320000	-19.7756680
14929.6490000	9.5361692
14894.7150000	19.3059100
14814.1700000	-1.3458890
14727.6370000	-8.2197085
14680.5040000	-8.2311575
14594.7540000	14.7637930
14548.3760000	12.7232120
14436.8100000	-15.4843300
14399.7240000	-13.6696460
14340.4720000	9.9632885
14266.7480000	0.6623164
14166.0060000	7.0750627
14098.8790000	-15.8495390
14043.5880000	10.3438790
14006.8540000	-5.6311003
13938.2100000	-19.6684740
13840.1290000	-23.1788450
13804.9730000	-20.9605920
13709.8880000	-18.6091560
13663.6460000	-17.1991940
13595.5210000	12.8418810
13547.9880000	-16.8478050
13470.8480000	21.5004270
13424.9330000	21.3225200
13337.2380000	-9.3169300
13286.4640000	-2.3085497
13235.1300000	-13.2154140
13158.5750000	8.9381427
13082.6290000	11.2778320
13030.6470000	21.3133620
12955.5180000	12.8388370
12919.1170000	-11.0776780
12873.7620000	6.8657482
12792.5260000	-13.6829190
12749.2200000	-2.7997130
12682.0120000	-7.0362696
12616.5260000	-23.1827520
12549.9680000	19.2697120
12486.7150000	-7.9743853
12413.7800000	-19.1432580
12364.2870000	15.0659310
12295.8380000	5.7856503
12245.6580000	-10.2768280
12215.4070000	-4.7873697
12122.0820000	1.9661057
12082.7530000	19.6900450
12013.7490000	-18.8447670
11957.6210000	11.0979900
11920.0000000	0.2137026
11868.4730000	-0.2374740
11808.6540000	-10.4341480
11727.6630000	4.0049608
11714.2790000	7.4623620
11647.1530000	5.9039483
11575.1320000	-19.1829990
11545.2710000	-6.5157410
11489.9050000	-4.8506895
11446.5700000	-4.0890053
11355.4470000	-22.2353810
11310.3870000	-21.5787130
11272.0120000	4.3809805
11228.1190000	-16.9516910
11150.8790000	19.1520100
11104.4620000	-22.3993650
11048.8730000	-21.9470240
10989.6260000	-4.5309634
10967.5050000	14.2021670
10910.7040000	-15.8917530
10862.6650000	13.1784860
10795.5130000	-5.6527579
10739.2670000	0.6364437
10693.5510000	1.7546251
10641.2940000	-16.1349230
10616.9930000	-20.7416100
10565.7760000	-20.1904770
10499.4780000	-13.8158630
10464.6930000	-2.9130120
10402.1150000	23.0417360
10364.9810000	11.9959930
10317.4290000	14.8586810
10228.4200000	-6.7532410
10178.6320000	-9.6129121
10163.0390000	5.4075479
10100.5500000	-4.4806706
10054.2290000	-19.4172590
10016.1610000	-0.9049367
9956.9679000	-8.9248153
9916.0984000	13.0285780
9861.8388000	6.2932632
9832.4228000	10.7744590
9779.8706000	1.9371761
9719.2080000	15.4775240
9691.0673000	16.7145380
9662.6023000	11.3193820
9604.5762000	-3.9438525
9533.0332000	18.0907340
9489.3457000	20.7906500
9452.3050000	-5.0467546
9427.4953000	6.9647896
9375.6406000	4.5067685
9325.9980000	-5.6086624
9268.8612000	-21.3521020
9242.8213000	-7.7436632
9181.3538000	21.3065760
9135.0509000	21.7083030
9116.4913000	0.3670550
9085.4363000	-0.1304556
9044.5660000	-3.2802444
8988.8700000	15.3142080
8945.3019000	13.6762830
8875.6343000	-20.1368220
8854.3845000	10.3051400
8833.1127000	18.1078930
8781.3214000	-9.6422585
8713.2295000	6.7460157
8683.6461000	-12.4753030
8657.0705000	-9.7426545
8630.7912000	15.6924720
8581.5143000	18.3193620
8510.7064000	4.0287364
8483.1338000	-17.2327150
8432.3770000	13.1218030
8401.0760000	-16.1405130
8393.4410000	-15.3514520
8320.9532000	4.7591397
