jMRUI Data Textfile

Filename: dataset10_WS.txt

PointsInDataset: 2048      
DatasetsInFile: 1         
SamplingInterval: 2.5E-1    
ZeroOrderPhase: 0E0       
BeginTime: 0E0       
TransmitterFrequency: 1.2322E8  
MagneticField: 2.9E0     
TypeOfNucleus: 0E0       
NameOfPatient: dataset10_WS
DateOfExperiment: 
Spectrometer: 
AdditionalInfo: dataset10_WS
SignalNames: dataset10_WS.txt;


Signal and FFT
sig(real)	sig(imag)	fft(real)	fft(imag)
Signal 1 out of 1 in file
266.4672200	-102.1657000
468.8155100	-209.5247600
317.6739800	-363.1707700
124.6134900	-419.0130300
-48.1419580	-387.2213600
-179.5488400	-272.8182700
-222.9312700	-132.6432700
-198.8270500	-11.9313060
-122.7711000	62.9005840
-35.6264510	75.9122370
21.2202910	45.1519600
57.8747990	-5.4065225
42.4343500	-50.4736620
18.1369700	-83.3260980
-27.3410340	-93.4669930
-52.3264960	-71.9607220
-77.8336180	-48.8095720
-89.9035450	-28.1832740
-86.9684770	-8.7737177
-84.6845530	20.4418070
-77.1806020	33.5434240
-60.8065020	61.2665140
-37.4098920	76.8699310
-9.2410264	77.0258800
25.7213230	70.8035600
47.6471310	44.9762040
50.4814270	4.3707113
36.3166190	-27.2865510
14.0859860	-47.2454830
-17.9446040	-43.9963700
-55.0484180	-18.4117150
-66.9826170	5.9113467
-55.5425740	49.3771590
-35.7732340	74.6970930
6.2190350	78.8060440
32.4362000	75.2446580
55.6754400	61.2166730
71.1932330	30.7402580
75.5841050	2.2290326
68.2270470	-22.8952910
60.2604040	-31.2153710
38.0070610	-49.0503160
28.7670290	-54.7079240
4.9532194	-56.8354290
-9.4202196	-50.8589960
-29.5898510	-35.7837650
-33.2969140	-15.1578740
-22.5709370	-0.1470684
-4.4049808	12.0837840
11.1360470	4.4237696
16.3783750	-2.1076721
22.7367160	-27.4081680
10.1714430	-37.3422230
-21.0219670	-51.6711880
-46.2456310	-43.1603190
-58.6243250	-17.4055380
-65.7317140	25.8742800
-42.0568450	51.4881320
-9.0772232	62.0187920
26.6654530	64.6539450
59.8976090	37.3177740
72.0787290	6.1063208
61.0720100	-30.6243850
39.0439070	-61.2150720
7.5246256	-61.5176010
-23.5267910	-54.6052320
-44.6809570	-42.3245010
-53.4089090	-18.5456540
-43.6889340	5.0758472
-38.7529210	22.3991910
-23.2895110	20.8204060
-12.8133540	23.9221220
-4.3137073	24.6026880
5.0861189	18.7435940
8.7330534	17.5306240
17.0499960	12.8095400
18.0415360	7.9005919
8.4080040	-13.1102020
0.5207819	-13.0496950
-10.4100320	-16.4524830
-25.0946720	-9.4797610
-37.6309730	17.0023250
-30.6526650	29.9615890
-4.8952117	45.0882400
17.6633620	49.0341810
41.4955730	40.1919350
53.0821340	17.0946320
46.0570210	-10.1656180
39.0748360	-38.0863790
6.6212648	-48.8304570
-11.3479400	-34.8389140
-31.1653750	-26.8472320
-41.4065820	1.4000134
-33.5619900	22.7516140
-9.9763904	38.4180820
10.7860330	42.1684440
31.5214090	34.5893790
46.4248230	11.3601840
52.3452030	-15.9996490
40.9266940	-34.4643210
24.7745820	-48.7116670
4.4047307	-48.6810920
-7.4110169	-55.0645620
-27.2095050	-47.1775010
-39.8975840	-34.4380830
-40.9134960	-18.7682450
-43.8962350	-2.7971217
-40.6101910	19.7443700
-24.8300080	28.0605840
-9.2972703	38.4763590
11.4251620	32.3939110
15.0415870	20.9715500
24.8737180	8.2175066
20.4781170	-6.4395022
9.5436481	-21.1019000
-6.2812691	-15.3607360
-15.2592090	-7.3297473
-25.9812660	7.3540215
-20.4052620	19.3285600
-8.0241743	26.9201860
11.9238460	33.3074000
29.9696300	18.6118740
36.4793440	0.0069497
31.1400040	-7.2314311
25.4158750	-28.6432310
11.3275880	-30.2287500
-8.3175770	-24.4946810
-19.2514640	-22.4933450
-26.3277290	-14.7092670
-30.8928290	8.3034191
-23.7628700	14.2891040
-18.6158110	20.6928770
-11.0913420	24.5305130
3.4686553	31.8728150
10.5099470	30.0276360
24.8965710	24.2357620
29.9186420	9.8028150
36.8812870	-1.7115669
32.4913640	-9.8709470
22.1002130	-23.8084330
14.8966830	-34.2290700
-6.4161150	-24.6969020
-15.9348620	-20.0719180
-15.6968980	-8.0035006
-12.7795560	-5.3176012
-6.5262970	1.2039829
-5.6777055	6.4647851
4.4803561	-3.2366633
5.5888305	-4.3339585
-3.4902273	-17.8660930
-6.5519171	-17.5386450
-19.0525460	-18.7274900
-23.3742230	-4.9423635
-32.6617390	3.0372601
-28.4159930	20.8977040
-13.2204210	30.9416140
-0.6400272	30.1895990
11.4159480	27.7336950
23.8677740	24.9871310
30.9922230	11.6144710
31.7598340	-1.3607534
20.2530130	-12.3956480
15.8118870	-28.5362950
-2.7096244	-28.4990760
-14.7082030	-29.3303340
-19.9541370	-13.8609790
-28.4507450	-2.3206795
-34.9111060	11.1156090
-28.5397420	23.9142190
-20.2892100	35.0639980
0.5154034	34.8238900
12.8132310	33.1527970
16.9236490	22.6840160
26.9131930	13.3228290
25.6999370	2.1405236
23.8785860	3.8649850
13.9903480	-0.7828605
9.5587785	-9.0530880
4.9119161	-5.6727688
7.9302033	-4.2365251
14.7545380	-0.3629961
16.3661410	-6.9849430
20.5188400	-10.3053300
18.8585290	-13.6830650
16.2954980	-19.9897280
8.8159191	-28.0237200
2.6501557	-31.0966770
-3.5136859	-27.0605570
-13.7749850	-26.1186770
-25.3527840	-16.0494440
-30.3315500	-3.9019784
-31.9932610	5.9860486
-21.0940880	8.6703436
-18.8076930	12.6173580
-12.5550170	25.0483750
-3.6569514	23.0915610
4.3591881	13.3490230
8.4563890	9.5658679
11.1125790	-0.8950924
6.9299955	-8.8545263
8.6836899	-7.5029171
-1.7889930	-8.6881440
-8.8643161	-10.5374810
-7.2706112	-1.3726173
-7.8783826	6.9880154
-4.2592973	10.1205190
5.7653891	14.0363770
1.6117363	7.2024932
4.2643993	1.5363386
4.4046509	-4.7697729
0.7047360	-9.0330221
2.1872060	-6.8170734
-3.8504179	-6.3477973
-9.7862769	-1.8982059
-13.7697550	-1.6764227
-10.6959760	8.6538000
-4.1684783	17.2587150
3.2338436	15.9344310
1.7628303	18.9882700
13.4230810	19.8477680
15.1855510	5.8998825
27.5801820	1.4872108
22.5914560	-4.1712304
23.7851950	-19.0750360
13.3306980	-16.4975170
7.3023208	-25.1209110
-0.5763324	-26.8965450
-17.6792360	-21.7342400
-12.6669520	-9.7152240
-17.6809070	-2.2999869
-14.4872640	7.0861273
-12.2003710	11.7702760
-0.0388927	17.3904500
1.9552953	12.1080980
13.9624200	2.2092303
8.4199204	0.5491604
6.3230028	-7.7647757
-0.0577506	-8.3758344
4.0187196	-13.0644340
0.0298218	-1.9361974
-7.7430243	-7.2450271
-4.0065974	1.7597865
-6.9181365	2.8807211
-4.3113741	1.6751419
-2.0503877	-1.5250860
-0.9114851	-2.5257990
-3.0252451	-11.4260060
-6.7965162	-10.7972580
-6.2834024	-15.2656470
-9.8394373	-10.5965300
-19.8281650	-10.6450920
-16.5494030	-3.2008003
-16.9773360	12.8467750
-18.3519810	16.6460780
-3.9686760	15.4661000
-3.5953774	20.7333020
7.1223864	22.4355040
13.3326620	13.0552490
16.8936310	9.0444155
16.9883120	-4.8033223
13.5913050	-9.3335803
8.8711643	-7.0358909
-3.9194620	-4.3568150
-3.8052553	-9.1341825
-11.1177530	3.1415946
-1.4089112	7.0260645
-1.4936255	12.4814510
9.6138843	13.8987090
13.4699070	6.7267598
10.2667290	2.3955617
7.7300994	-6.9974272
6.1315452	-2.9868142
4.4248037	-9.0731478
0.9009905	-14.4689830
1.9915366	-8.5104118
-4.1835856	-8.1489062
-12.4531030	-0.1047245
-3.8175824	-2.9182204
-5.0207856	9.5870295
2.3994420	9.5824885
-1.8875049	11.5426550
11.9645770	2.9813444
14.8266510	-0.6005631
10.1318840	-6.1574403
11.9598700	-7.8314330
3.1621089	-16.1069900
0.9310020	-11.3936320
-5.7486818	-9.7777277
-14.6659180	-8.2095292
-13.2126460	-3.4488618
-17.9822220	3.0452550
-9.7436882	12.0969960
1.3204674	17.3946970
4.7090547	10.5161880
8.7962983	14.9480060
6.9721979	2.2401517
15.5256010	-3.8632626
13.2649550	-2.5683685
3.4978010	-3.7442789
1.5165575	-12.4137270
-4.5131140	-12.7188730
-9.4135092	-12.0635580
-4.5167769	-5.8755991
-8.4342767	-3.8002518
-4.7515588	-4.9390114
-7.3255687	3.0652159
-8.1682117	5.6892621
0.7210501	6.9223577
4.7424735	1.9062634
-4.2915677	-4.2679954
-3.2040414	-1.7616015
-2.3387561	-2.3343880
-5.6711042	2.4946446
-11.1596310	1.9483153
-4.8145553	4.9810154
-4.7071695	12.4735290
-0.1544880	16.2161210
4.1364707	14.3487800
13.9373640	5.8828759
16.3441840	8.3454557
18.4441310	-5.4598823
7.3839455	-6.0807922
3.2216166	-13.7167210
8.6885082	-16.7591890
-0.3206060	-11.9127770
0.5268438	-3.6213245
-6.8348377	-7.1648569
-10.1821210	-6.1665620
-5.1555126	-4.1825450
1.8703389	-2.3662824
3.1584782	-0.2913652
-3.7335714	1.4992308
-2.0202387	-3.8484004
-4.9589452	-4.4645120
-1.2669771	-7.4392199
-8.1573540	1.9943814
-4.6148209	-2.2957179
-4.5682415	4.9271241
-4.4663865	2.6868526
-7.4648460	9.4440802
-6.1609080	3.4807610
-5.3194940	8.0473837
1.4615850	3.1527445
-0.0389591	2.3068630
8.9522298	2.6510855
2.3925558	1.5331678
3.1415529	-4.3649888
-6.9328696	-8.8944557
-12.4227510	-2.1497936
-7.9102866	0.5582574
-14.5207830	5.7113061
-6.4801562	10.7686190
-2.5320136	9.9062145
7.0653897	15.6762870
13.5619280	8.2342767
8.1662375	7.7280308
10.1054310	1.8555727
10.2702660	3.2905664
9.2032586	-1.2305509
8.9045003	-11.8115320
0.6705768	-10.0689500
7.6217700	-12.5366880
-5.1411089	-6.9808299
-6.2586090	-10.5283430
0.6580354	-0.5065486
1.6135935	-3.9942888
-6.3217553	1.0606566
2.0150396	0.0613712
-2.8729714	-8.5486599
-7.9522174	-3.5530386
-8.9507018	-3.6716298
-8.6679532	-8.6524363
-11.6870930	-4.3935964
-9.5322644	2.8478532
-13.7243590	8.3173343
-4.8461492	14.1898620
-6.3830807	17.0656700
-4.9600265	16.9793880
-1.0962690	18.1584480
14.3267560	14.2224920
10.7373550	7.7880473
8.6296771	-2.9774135
16.7725100	-6.9985801
13.2900450	-4.4116985
-0.3549349	-7.2580568
1.0568962	-5.2511020
0.2742113	-5.1456250
-5.3790749	-8.5491077
-12.1798340	-6.0222876
-7.3107477	2.1379748
-10.3561750	0.1544535
1.8883341	3.2027822
0.9649295	10.1866290
8.5689262	6.3612633
1.9481782	4.5120578
8.5105084	-4.0041588
4.9088267	-2.8107717
2.6706124	-2.5268994
-1.1569379	-10.9861760
-4.5004931	-6.1573363
0.1536514	-7.8148419
-0.3065534	1.5502507
-1.0440234	2.4334281
-4.6868649	6.0555635
4.6558781	2.0089427
7.3116082	1.5579153
10.4718840	-1.0768490
7.4530356	-7.4344240
-0.4113003	-3.1421147
3.4176182	-3.9517410
-8.7472550	-9.8000893
-3.3498779	-5.7688810
-7.8783231	-2.2101556
-4.1658263	3.3277890
-10.0687500	8.4973792
-2.9714048	4.9308966
-4.8266713	5.2219959
0.1081058	6.1146846
9.4294327	3.0522731
-0.1192072	4.5028589
0.8778422	-4.4985201
1.8700597	-3.0639819
2.5028716	0.6494888
-3.5769626	-8.4021096
-3.3267076	-8.0048185
-2.7589317	-8.8782984
-3.6030907	-8.0530325
-5.7374107	-4.1582112
-3.6283427	1.0064775
-7.7023897	1.3765110
0.9012086	1.8556914
