jMRUI Data Textfile

Filename: dataset17_nWS.txt

PointsInDataset: 2048      
DatasetsInFile: 1         
SamplingInterval: 2.5E-1    
ZeroOrderPhase: 0E0       
BeginTime: 0E0       
TransmitterFrequency: 1.2322E8  
MagneticField: 2.9E0     
TypeOfNucleus: 0E0       
NameOfPatient: dataset17_nWS
DateOfExperiment: 
Spectrometer: 
AdditionalInfo: dataset17_nWS
SignalNames: dataset17_nWS.txt;


Signal and FFT
sig(real)	sig(imag)	fft(real)	fft(imag)
Signal 1 out of 1 in file
49936.3160000	5.7928163
49705.8180000	-5.2542226
49506.9460000	11.1929070
49176.9170000	44.5546300
48990.2740000	-54.6533200
48733.3300000	10.7755090
48556.4840000	-23.2421860
48318.6310000	54.6340840
48104.6570000	25.4252250
47884.8840000	-60.3563500
47616.7860000	-7.3175684
47418.0240000	5.8157056
47242.0580000	-24.0446240
47001.2390000	-39.1869900
46754.3600000	23.4461860
46581.9050000	32.6327910
46330.9200000	-24.3630220
46137.5450000	-4.1838914
45808.2680000	-31.1061580
45679.2580000	22.3686340
45501.3330000	-59.0372870
45280.1890000	57.0985720
45076.1550000	22.7050440
44814.4120000	-11.2665120
44558.0440000	29.5089100
44437.0200000	30.7975000
44232.2780000	-16.0653580
43989.7030000	2.9866948
43724.9550000	-20.6398440
43558.7720000	48.9043650
43311.2750000	-49.8796560
43135.5980000	29.8923600
42894.7990000	33.4073140
42730.0290000	-52.0560560
42590.0210000	16.0503310
42290.2860000	59.2099500
42167.6800000	34.1816060
41929.6540000	-31.3577360
41709.8100000	22.0722970
41608.3380000	0.5001276
41356.6470000	60.8195600
41098.9360000	31.1256450
40933.2190000	58.2207610
40817.0780000	-57.0031920
40634.6380000	-58.0048930
40443.4570000	-23.5972320
40232.0020000	-40.8868070
39970.3320000	13.7572960
39759.5860000	-14.2378510
39682.7330000	28.9022290
39496.2370000	14.3643350
39265.0300000	-43.5333490
39034.1870000	-27.5419620
38942.6400000	-53.3692940
38680.4110000	6.3915017
38572.2490000	-30.4851600
38356.6600000	-11.3248020
38192.3650000	-17.9243210
37975.5970000	11.2339610
37779.4100000	-64.0970980
37603.0070000	-1.1878753
37494.8720000	1.7069360
37284.9480000	-63.5182320
37084.6230000	-9.5042549
36876.8510000	1.1416079
36723.1290000	45.7497420
36527.7990000	-36.0930260
36447.4570000	-47.6235070
36304.1140000	40.3536460
36064.0390000	-35.9618120
35846.2460000	-17.3404690
35728.5140000	-48.9824670
35552.8550000	45.5087030
35400.4920000	-28.3370130
35177.1830000	-59.5914140
35009.4400000	-42.9759080
34951.1640000	-19.3609690
34732.5260000	-52.8321260
34516.0670000	-35.6415540
34452.4070000	10.3904860
34204.9190000	-47.6412400
34079.7750000	50.7066370
33917.2410000	-55.2433700
33732.3650000	37.9736960
33599.2060000	-36.2343250
33504.3890000	12.9188760
33293.0130000	41.7821040
33199.8380000	14.6811540
33016.3490000	43.3791830
32872.9410000	40.6860460
32689.1790000	-44.7931680
32523.0180000	19.4821490
32346.3700000	43.9273590
32152.8320000	42.9117010
32023.1120000	-40.0807710
31873.7900000	2.6199866
31804.7420000	-37.4033190
31647.4780000	55.1499340
31400.6290000	10.0380260
31335.6210000	44.5255640
31232.5430000	-20.5065360
31061.5160000	0.1944467
30925.5910000	-62.2525790
30751.9400000	17.6663450
30548.6360000	37.0029690
30396.8520000	31.3736110
30363.4820000	22.9292290
30186.3340000	55.5598130
29968.3430000	-3.1519525
29923.8370000	3.7181222
29686.6860000	21.7864020
29609.0780000	-30.3503470
29456.5140000	-10.8925510
29350.9160000	25.8686700
29182.8690000	-41.0931160
29002.7060000	-52.2906130
28933.9170000	-7.3137528
28770.3890000	57.9147800
28622.0080000	3.1038349
28551.8680000	50.3586690
28372.1420000	51.1592920
28194.1500000	-26.2597960
28087.9520000	-24.6602190
27999.4910000	-47.4285970
27771.5230000	-63.6098150
27685.9290000	29.1826820
27593.6530000	47.0583440
27386.6910000	-4.7873421
27301.8130000	24.3517220
27143.5680000	48.0108730
27076.6350000	-55.0466510
26884.4170000	23.4938870
26829.2180000	27.0287960
26616.6150000	-8.1063965
26615.9790000	-61.4737480
26464.4160000	-32.1688590
26293.1230000	-2.1431764
26156.7040000	-37.4872350
26092.8950000	26.6474710
25999.5980000	4.5337933
25876.2600000	31.9798730
25720.6110000	-36.5766620
25525.7560000	-60.5167180
25411.4190000	55.7876160
25336.2440000	-16.8967390
25228.2240000	-23.8537440
25098.3300000	-51.2577290
24973.0570000	-56.6518680
24879.5420000	-34.4925900
24782.6700000	-35.8524390
24565.9950000	50.7868280
24512.7080000	-52.3454340
24406.9050000	-41.3176450
24266.8450000	25.3469530
24145.5450000	2.7738464
23989.6880000	11.5701280
23901.1910000	-23.3019200
23872.3460000	-55.7798100
23711.4000000	-9.3541463
23628.3850000	-3.2589264
23509.1460000	-40.4948920
23400.1810000	61.7426030
23233.3690000	26.0050720
23117.7070000	-2.9782586
23072.6480000	-47.0811700
22984.5900000	-3.1735843
22809.8160000	-11.7393060
22720.8280000	8.2965544
22571.6290000	-44.8250910
22510.8610000	-33.3222750
22422.5990000	-19.7161230
22272.8930000	22.9383160
22250.6510000	-31.0693480
22096.1580000	-54.8109780
21931.8290000	45.7463810
21849.4100000	-55.1189100
21786.0090000	-30.1818340
21622.3100000	-17.4829800
21607.2450000	25.6544700
21495.5520000	54.9380750
21381.0300000	-34.3015300
21290.0890000	-8.0609849
21224.2740000	36.7339440
21093.8010000	53.3137660
20997.4690000	-21.8150820
20838.5090000	-5.6596437
20785.7870000	40.0272500
20659.2460000	-37.6392770
20550.4150000	-35.1619420
20448.9580000	63.7882450
20364.0020000	-27.1888890
20357.5310000	46.6029790
20180.7900000	-15.6906880
20057.1840000	-44.4304920
19965.0580000	-23.7184800
19870.7780000	-31.1434990
19790.9880000	-11.0041110
19690.3100000	3.3253989
19648.6790000	-56.3967170
19552.7180000	-17.9062970
19489.5520000	25.6828320
19425.6230000	-52.9016610
19232.9880000	-4.8693073
19198.3990000	-25.9108560
19146.7390000	-51.5369570
18980.1030000	56.7045740
18880.5630000	-24.8929810
18808.7800000	4.6968108
18764.8390000	-60.2068130
18687.4650000	22.7410920
18582.0170000	-23.9391470
18522.5440000	33.4639670
18401.0990000	2.2458775
18268.1550000	-49.6108540
18221.8590000	61.6430340
18064.9900000	57.8025260
18057.7340000	-6.1616822
17916.0070000	-18.0493070
17864.5370000	-15.4290110
17793.8430000	-28.1742150
17661.2310000	-57.9012010
17594.5760000	53.5905080
17532.0540000	-13.6387720
17462.6800000	-9.3422708
17375.8230000	50.4108620
17239.6680000	-52.8845280
17245.5330000	10.5964800
17098.9540000	41.7977380
17070.8410000	-15.6595130
16995.9460000	-55.4026640
16882.2400000	-61.8104980
16750.5300000	-50.0188020
16790.0890000	12.7140610
16689.4800000	49.9857260
16581.5130000	-42.0287280
16525.8620000	-59.0102960
16405.9380000	-19.9195460
16366.6490000	18.2500690
16222.0590000	-10.2409570
16224.3220000	44.8347270
16066.8180000	1.5216613
16020.4840000	-12.4361250
15928.2840000	15.8834310
15902.0030000	30.1454980
15821.2660000	44.1806500
15735.1450000	41.0761810
15614.3370000	55.6809240
15549.9470000	-51.4745260
15479.6200000	-31.1903110
15457.4030000	8.7856024
15310.5080000	-49.2294910
15282.4560000	25.8548510
15227.3570000	-47.9012890
15147.4450000	-62.9436710
15125.1800000	-34.6886530
14977.3950000	-5.3955709
14990.0050000	62.9078510
14879.4840000	18.4217600
14781.4870000	18.1584320
14725.9710000	-18.7255560
14693.2630000	2.1118260
14568.5780000	-55.6610200
14556.6770000	-6.5280977
14517.9770000	42.3917600
14400.0790000	-14.2184340
14304.6680000	31.0633050
14228.0380000	42.3114830
14193.1180000	-62.8621660
14111.8750000	52.5384960
13992.1580000	18.2380380
14034.7970000	-28.0258220
13975.8910000	-18.8419040
13897.9590000	58.6670970
13814.2900000	-57.3512690
13713.5760000	6.6980593
13712.3720000	-11.0619850
13614.3620000	-46.8675630
13571.4270000	28.5770460
13418.4540000	14.5632660
13420.4090000	9.5440139
13389.0320000	-54.5075680
13325.2260000	-27.9179840
13185.3960000	-46.3264590
13164.0720000	-18.6729560
13071.9650000	37.8529340
13079.9670000	23.8599380
13005.2770000	-14.3447920
12923.9370000	-45.9968000
12898.9990000	3.8298760
12804.0080000	-21.2487050
12773.6410000	-8.5099242
12646.7190000	22.6359900
12551.1730000	5.8327036
12527.7670000	59.5426300
12450.4400000	40.4839640
12481.8800000	-40.2344730
12353.3670000	-30.5147170
12291.6770000	63.5585750
12207.7630000	24.3916750
12245.8710000	-0.4132768
12184.3340000	-58.4787320
12144.2600000	59.8585930
11972.2860000	11.7600960
11965.9890000	-42.9183970
11896.7340000	5.8123432
11892.0090000	12.2676000
11863.0010000	52.6588620
11698.0010000	-5.1046191
11643.4360000	56.8805920
11643.0700000	16.1646400
11594.9920000	-50.5601430
11562.2930000	-40.5577720
11537.4090000	52.4039200
11466.1630000	60.6713980
11400.3870000	-6.1359266
11337.7870000	7.1162233
11289.3460000	-5.7002230
11185.0540000	-55.2143160
11136.3330000	29.0199600
11144.3940000	2.0092363
11031.4960000	-23.8934020
11015.6890000	17.3580370
10960.7170000	-5.2577072
10840.7160000	46.6957480
10867.7270000	-48.1972650
10780.5760000	43.0878050
10735.7010000	7.7927969
10662.3800000	-34.4634100
10697.4340000	40.7850130
10582.1380000	5.3003905
10530.3080000	22.1275050
10493.3510000	37.1671150
10503.7730000	-28.2422440
10397.4050000	-1.3812600
10284.1180000	45.1346960
10251.8110000	60.9960150
10240.8950000	-46.8695720
10154.4160000	20.1142990
10111.1050000	-24.0341610
10051.1360000	-8.6408691
10014.0650000	-41.4252780
9957.0627000	-36.4307210
9916.9552000	34.2230250
9910.1224000	-58.2985130
9875.1622000	-11.0693880
9810.7525000	-26.4245060
9809.4832000	58.4720100
9727.3220000	6.6226079
9677.3518000	-28.3188660
9594.1538000	8.1590319
9624.1873000	63.1303380
9541.8737000	33.4000180
9475.1232000	-39.9335630
9498.1678000	0.4576098
9476.4099000	-11.0279830
9353.2689000	57.9611100
9298.7396000	-15.4643580
9278.7286000	-61.8117160
9266.6808000	29.0737270
9166.0719000	29.3964540
9144.5723000	13.6241930
9142.6177000	13.4533310
9130.5183000	-55.9138050
9053.2703000	31.4766280
8954.5155000	-27.8299300
8937.4676000	41.5549350
8936.8654000	-22.8992960
8889.7422000	-16.7802540
8751.2228000	36.1442020
8741.5364000	-38.3056050
8775.6979000	-21.4541900
8704.9388000	47.1276820
8620.0522000	-22.0568200
8655.3738000	-35.1967020
8605.4281000	31.5829090
8476.8604000	24.5510000
