jMRUI Data Textfile

Filename: dataset1_WS.txt

PointsInDataset: 2048      
DatasetsInFile: 1         
SamplingInterval: 2.5E-1    
ZeroOrderPhase: 0E0       
BeginTime: 0E0       
TransmitterFrequency: 1.2322E8  
MagneticField: 2.9E0     
TypeOfNucleus: 0E0       
NameOfPatient: dataset1_WS
DateOfExperiment: 
Spectrometer: 
AdditionalInfo: dataset1_WS
SignalNames: dataset1_WS.txt;


Signal and FFT
sig(real)	sig(imag)	fft(real)	fft(imag)
Signal 1 out of 1 in file
267.4784600	-103.3927000
475.0396500	-208.8806700
321.3086100	-362.2527200
128.0340400	-427.0100000
-45.1930750	-382.5945200
-169.4490100	-283.1818600
-214.8282500	-146.2818100
-194.5706100	-21.1887660
-121.1360000	58.5017530
-45.3156430	69.0955210
22.7656620	40.8199560
46.8668230	0.2603052
46.4905250	-54.3598750
11.5958080	-78.6221030
-18.8548920	-88.0045830
-55.0092710	-79.0446890
-70.8817380	-49.8472420
-80.5211030	-24.5860260
-88.2958960	-4.2262254
-81.1649970	21.0381260
-79.3546500	42.0199920
-53.4946150	57.8437900
-31.2167080	74.5498910
-2.7747650	79.4513920
21.4856530	59.9901810
44.4003660	38.4068090
55.3074950	4.5377709
39.5618080	-24.9500650
7.1264148	-38.3453180
-22.0719010	-35.6729180
-48.2697720	-18.2013530
-55.3820640	7.0057237
-51.7267680	49.8476820
-27.9668300	72.0692090
-1.1153700	79.6536520
34.7251640	69.9776400
58.1109860	51.3945350
71.7524230	30.7224610
79.1398190	7.9300545
68.4696850	-21.1950160
51.9292050	-39.5427590
45.7215830	-48.7659150
28.3329350	-58.7727840
5.7471808	-47.7737860
-10.7949880	-48.7626840
-24.0589940	-27.7523830
-26.0478290	-17.8852670
-17.4708390	-3.7546159
-7.3187679	9.1432329
8.6083663	1.6233283
17.7239670	-5.1283978
16.5542880	-28.5947790
7.1840043	-38.2814090
-14.3799840	-42.8350170
-39.3440940	-37.6416440
-61.2567850	-7.0305208
-57.2065190	17.4116970
-43.6695180	47.4674450
-7.9654846	63.7723590
25.2355140	56.3080750
53.8410990	33.9251950
58.3273270	6.4372574
58.3322360	-32.7738030
36.0487710	-57.7662680
4.4906663	-60.5678270
-24.9659280	-57.9724610
-47.8095630	-33.3765780
-45.6986100	-15.8024740
-47.3425020	-1.9420593
-36.6759070	13.7836570
-29.2502270	29.6652380
-16.0835220	27.8166360
-4.6272736	30.6865210
0.7264865	23.5404430
4.5508219	17.0029470
11.6032250	9.2587238
18.2089190	3.5604794
7.0757240	-13.4457960
-5.5547093	-9.6729247
-14.7891770	-14.2089430
-22.9139780	-1.9228746
-31.0095210	14.8721140
-19.1226850	31.1258130
-1.7206759	43.5287690
12.4294300	41.2025100
38.0099910	30.5438460
45.6030690	12.4569100
42.8032610	-11.1211240
31.4361690	-32.9360330
11.7957770	-43.9151240
-12.9119460	-31.9404600
-27.8856890	-17.4757560
-32.9232760	3.7605702
-31.0693220	21.5702270
-8.5153983	38.0111590
16.8949910	38.4809610
26.4314460	26.3016350
46.3886760	12.6936590
49.1230820	-8.2495633
44.6929110	-29.2417990
30.2458230	-42.2317690
9.7459425	-51.6639160
-11.5373760	-50.3796860
-22.6917520	-43.5594750
-40.6419210	-32.8534730
-46.3107280	-15.1465260
-40.2881180	-0.0669920
-37.2416660	14.9771380
-24.6340070	30.3856530
-11.7604150	36.4764380
11.1431590	28.5965040
17.8941480	25.6454510
24.0910710	10.8397030
21.1017560	-10.8723080
2.6270298	-9.8164443
-3.5625896	-10.4987500
-11.2904640	-11.5439600
-20.8334380	7.4970092
-12.9688900	17.5442380
-8.9040085	28.2636830
14.4295790	28.1357520
18.5090440	15.4769790
24.8682410	-0.6473277
30.7583950	-14.0486120
19.0016910	-23.9441260
10.6563690	-24.4473990
-12.2099970	-29.9214020
-23.5287320	-21.4051620
-25.9948250	-15.1038300
-30.2662710	0.6542940
-29.6450290	11.2663970
-21.4755960	27.0612380
-12.2700410	30.8320930
-1.9856354	30.0064610
17.5166310	24.5722810
26.4031080	18.5647870
32.2852000	9.7405564
32.8915760	0.5863048
22.5042220	-8.3482504
23.0181540	-22.3640640
9.1078797	-20.7953890
-1.1934024	-19.1000010
-7.2477659	-21.4762080
-17.1892250	-5.2310948
-9.2954237	-3.8549593
-2.8383255	1.5875423
4.2708692	-0.5327379
3.0597026	-4.7169398
-0.6623919	-8.5942834
0.9716101	-15.0717710
-12.4924910	-11.6774350
-22.0767020	-11.7578110
-27.7984850	-2.8633721
-30.5192720	6.1674215
-20.3679420	10.4916140
-13.2226550	27.5772970
0.6235399	25.2615290
9.7929600	26.5397180
21.7768840	23.4799620
22.0649490	14.3014670
23.9789040	3.2437483
17.9344750	-18.5474540
16.3870510	-27.8999190
-4.0584092	-28.9986650
-18.0588660	-28.0498200
-24.6199320	-18.6807910
-29.6401820	-6.8132500
-33.2260390	11.5181410
-22.8808230	23.8004950
-17.6676080	33.0878890
1.5805112	35.7702060
6.5573437	27.6875090
17.3851430	27.0988510
24.9279610	15.9369340
18.4873220	7.3753988
19.6217170	-3.0386005
12.9334040	-0.9742086
8.7963712	0.6183630
5.4884481	2.0309831
14.2067690	6.5492746
9.9326192	-1.4837792
15.2559980	0.4186024
25.7780550	-8.0162282
25.6752320	-11.3785140
22.0076430	-22.3557390
16.7656600	-26.0068750
3.5529997	-31.4370530
-9.2050404	-27.5951940
-20.4132970	-23.0969390
-26.0129930	-14.2799660
-27.5803570	-10.5882310
-30.5614530	3.9291410
-24.8130860	7.2814119
-17.7162130	20.5687430
-8.3484255	25.7805960
2.6666473	17.9103660
13.2410720	19.3368520
13.0688570	4.3896855
14.0066110	2.2766716
9.9397716	-4.2019023
5.1975469	-7.6449814
-9.4646352	-5.6546448
-7.7447605	-7.4309963
-10.9306870	3.8419407
-7.0136508	9.8147044
-9.1022668	9.1822217
1.8378561	7.8507908
8.6097837	7.4737627
6.8005997	3.8385840
6.7511474	-0.5413642
3.2804110	-9.1617018
-0.3306181	-4.8840610
-5.9435990	-6.2100701
-10.2756130	-8.6017564
-12.0451560	4.0410876
-18.6603480	6.2324723
-14.0042900	12.6030440
-4.9860150	17.7333870
2.9370910	25.6554370
19.0724140	23.4070930
17.2086050	17.0267030
23.7264380	8.1374920
26.0365410	-9.5592628
26.9907750	-14.7139800
15.9744360	-19.3849650
3.1460909	-24.4051350
-7.2775374	-21.9708490
-7.1022227	-19.9274290
-10.3192240	-8.1657899
-20.5419820	-3.8188175
-7.5128724	10.4785790
-5.4924947	8.1358200
3.1754067	12.7026160
7.7278563	8.5195516
12.4779600	4.1138444
9.0154406	2.3675150
4.3759054	-3.1962510
3.1855504	-4.9464569
1.6771012	-4.5751987
1.0872648	-3.0092817
-5.9419176	-9.5512704
-7.4465595	-5.3745022
-3.9482659	3.3513613
-0.0703406	4.0877469
5.0019248	-5.4715213
-1.4734885	-6.7238347
-4.0411801	-7.1021139
1.1388610	-10.7402320
-7.3834339	-8.0968546
-17.4573040	-11.4189080
-19.9246750	-4.2327496
-18.8238260	-2.3421586
-16.0497710	13.4832260
-14.0561110	11.3614060
-12.0570890	18.1294240
2.8761272	25.9000570
11.8516190	15.7351600
10.3068190	12.5073970
14.8817890	5.6771913
12.2742970	1.8682094
13.2092110	-8.9714034
7.1627343	-7.1918558
-2.7367114	-9.3765318
-6.0632624	-8.0455156
-4.7864853	5.0206212
-6.6026450	7.3733226
-4.8582390	12.6876970
8.1222625	7.6401537
6.2757958	6.0945422
11.5422280	-0.4145840
9.2654888	-2.6884704
13.7237170	-12.6182510
4.8007649	-13.9696360
-3.6286917	-15.1326270
-1.9575605	-7.1652695
-6.2662068	-6.6747905
-6.6226202	-5.1461617
-6.2062624	4.6413057
-10.4066200	3.4616983
2.1662172	11.0078840
-0.7974117	8.7916423
12.5979420	7.2325796
9.6556365	2.0978020
8.1597810	-11.3799090
5.1883441	-7.0296922
-1.6111778	-15.7863290
-6.7512354	-16.4737150
-15.4537020	-9.6495685
-16.4318340	-7.1305523
-18.4736510	1.5035806
-14.9267690	4.3076882
-11.6562720	18.4941270
-0.5527304	17.3838230
1.4064406	15.1699940
8.8148957	16.7870250
10.2816350	8.3494939
18.0145610	6.5411577
13.0912170	-2.7865569
11.5293850	-13.3682670
6.0306265	-6.1554411
1.5199417	-11.6480850
-9.1790800	-10.0506260
-12.0051260	-0.9788900
-11.2429870	-5.6401849
-10.9323460	4.5488940
-5.7356836	3.3664220
-2.3766772	-0.6815512
-0.6104740	5.8277485
3.7310982	3.3155592
1.8982101	-3.0340350
-0.2007628	0.0990783
-3.6767979	-4.3877333
-2.3374057	-3.0628464
-4.2622006	6.2411738
-9.5766470	6.7717734
-3.0455081	14.5336780
-0.9727553	16.8668500
5.5333723	11.1611110
7.5668422	11.6636040
20.6247400	8.1751139
16.6363100	-5.6219183
9.6598123	-13.2398270
11.6664860	-12.2060200
5.6044838	-12.9803160
-2.6254255	-7.8252079
-6.8688404	-6.3818550
-6.4433724	-8.9055701
-5.6133227	-0.2765013
-7.2471904	-4.7440330
-4.0592177	-2.5195051
-3.4100218	-0.1872385
-2.7470672	4.7328053
5.0027607	1.4416102
-5.0151269	0.8963405
0.8220122	-4.3739932
-2.9740593	-4.4048606
-7.6202455	-6.9891805
-6.4281006	2.1829271
-1.9861504	6.1659448
-8.4787897	8.1086508
0.1671800	2.2075635
4.2458867	8.1853065
1.1428925	9.1013827
2.6777070	4.4792124
0.2403540	0.0893823
6.7121090	-1.7763403
3.1890195	-5.1008038
-8.4279974	-1.6753750
-5.0354392	-0.1080487
-10.9097350	2.4277427
-9.4984371	8.1558727
-10.1118430	14.3305690
-6.1812341	12.2384520
-1.3201046	20.6487060
9.2528828	17.1648830
14.4932700	14.8915970
17.8651440	-0.7079477
12.3118330	-0.1023491
14.5541320	-3.9997631
8.0826017	-5.3678566
6.2471616	-12.0812580
4.9211128	-9.4348834
-1.5827828	-13.7468270
-7.7987260	-2.8705196
-7.2550855	0.6203567
-0.0321113	-6.5877650
-4.9870579	-1.6433907
-5.4211189	-7.9291562
-6.0204593	1.1047379
1.1468184	-5.9752235
-7.4764703	-1.1083069
-5.6419267	-0.4920766
-5.4623317	-3.1366522
-15.6033740	3.3315368
-12.3267270	9.2205139
-10.6364870	8.4516055
-4.3391656	13.5912860
1.7855786	9.3223043
2.3205130	9.3419254
10.6438290	16.3268230
17.1746980	8.5942502
15.0572400	-3.5018193
10.9660920	0.1470334
4.5483055	-11.3520990
0.5191511	-15.1791550
-4.8960215	-12.6136010
-5.7144190	-6.0403877
-13.0440430	-1.5034584
-10.9438740	-3.8739755
-6.0077076	4.5527098
-6.2684139	9.5883181
-1.4809463	13.7577580
1.7702811	9.2013774
1.8031237	3.3811675
7.3067730	3.8063578
7.0882180	-2.9215592
8.3802560	-7.4081591
7.7462890	-2.3352696
-4.6810195	-7.3449145
-3.2620757	-6.3653577
-2.8421078	2.8451443
-3.9586584	0.9029132
-4.2413012	1.8722485
4.2124761	8.9439258
6.5257064	6.9033829
2.3980564	6.2879644
2.3362028	-2.2989554
8.5546430	-9.1868622
-1.6637195	-12.2383720
4.2864270	-8.8580203
-3.6382656	-4.9554388
-6.5799853	-2.8833790
-4.5765300	2.0506903
-10.9564790	4.9361888
-9.3828837	3.1397440
-6.2660620	5.0930984
2.8801600	10.2290590
3.3949405	7.8157774
6.4780358	6.6152965
-0.6203470	2.7503364
8.2292988	0.4901174
8.5289864	1.5536414
2.6166288	-4.9042542
-0.5568234	-8.1007949
0.8841343	-1.8892398
1.2932606	-0.6348425
-4.7341656	-0.7445001
1.2053971	-1.9914552
-8.3485189	1.6381176
-3.5533005	-0.9199022
-2.9386918	4.5921764
-2.1803278	3.5128863
