jMRUI Data Textfile

Filename: dataset7_WS.txt

PointsInDataset: 2048      
DatasetsInFile: 1         
SamplingInterval: 2.5E-1    
ZeroOrderPhase: 0E0       
BeginTime: 0E0       
TransmitterFrequency: 1.2322E8  
MagneticField: 2.9E0     
TypeOfNucleus: 0E0       
NameOfPatient: dataset7_WS
DateOfExperiment: 
Spectrometer: 
AdditionalInfo: dataset7_WS
SignalNames: dataset7_WS.txt;


Signal and FFT
sig(real)	sig(imag)	fft(real)	fft(imag)
Signal 1 out of 1 in file
265.2665100	-107.6418000
475.5763100	-216.3602800
325.7104700	-366.8432600
132.3536000	-432.1757200
-46.7273030	-392.3109300
-174.6478200	-281.3855000
-225.5764800	-140.9849100
-201.2410800	-20.5194250
-127.0083400	54.8292150
-39.8056630	77.9379740
21.8182420	49.3079080
52.7751410	-3.2807977
47.1768670	-50.3296550
17.1277350	-84.5491250
-26.2292820	-88.1535130
-54.6632680	-76.7276650
-75.3375030	-55.4762710
-88.7647500	-28.6263300
-84.9722530	-5.6712648
-84.3853090	14.4955200
-77.0034170	37.1135830
-59.1147980	57.4474520
-34.2059200	75.1577510
-9.2169628	75.3148140
22.0061910	64.8646340
44.5803670	40.0145990
50.3942310	8.0945143
41.5000010	-21.2941900
10.0802520	-39.4893540
-20.1177930	-41.0541090
-48.1564670	-20.5333080
-61.0847210	14.0862000
-54.7832910	46.3633860
-27.8899860	72.2268730
3.4951358	82.4952100
36.0472220	75.5974770
65.5234900	60.0154700
74.2932360	29.8437870
78.9074730	3.3842285
75.6298130	-15.8982240
61.8314800	-37.8092090
45.1106020	-50.8550620
25.9545070	-57.7684160
5.6734359	-54.8455330
-10.3091380	-50.9167210
-23.6304650	-38.7555680
-26.8631210	-19.5003530
-21.3458440	-2.0336462
-7.4027462	10.4171830
8.3422012	5.9528241
21.2413480	-5.5111849
17.7341610	-24.2775530
6.0435555	-39.9065330
-20.6107960	-48.5110400
-44.6024520	-39.2000240
-62.5734840	-10.8290900
-62.6007510	19.3576930
-43.9081710	53.1454320
-8.5116369	66.1153480
29.3184620	62.4575870
57.8993780	35.5590260
67.1642250	4.2868619
60.6420540	-33.6507090
34.0067170	-56.4753890
0.5409605	-64.5964370
-27.8852880	-55.6581650
-47.9699450	-37.7437030
-52.2684850	-12.7061770
-49.8503940	6.3556734
-38.1145530	16.4869950
-28.8021130	24.1019900
-17.8607610	25.7576440
-7.0678861	29.7465210
-0.3797485	23.8621400
8.3579995	21.3108780
13.9908710	11.9068990
17.1400630	1.1417893
11.5669940	-9.1693938
3.1920704	-17.1055520
-13.2278650	-14.7361950
-26.3539930	-4.8828567
-29.5787560	10.1882490
-25.5906570	30.5759420
-6.4600918	45.3666540
15.2308210	47.3928840
37.2256640	33.8166340
50.6505390	11.9696010
48.3454030	-15.3009810
34.3455170	-36.8856630
6.6782063	-47.6500770
-19.9586370	-40.8710270
-35.1586760	-20.9052050
-37.9687280	6.5399963
-28.5808400	25.5225420
-10.5752720	42.7931230
15.1294570	43.2625950
34.4247820	33.1789420
50.2268010	9.5211127
49.7814230	-10.1177040
40.7545840	-27.4677360
23.6582830	-44.0183130
8.3646455	-47.4469360
-10.6291610	-51.6749120
-26.3751970	-44.6130450
-39.6777950	-31.1810560
-48.3887440	-16.7928170
-49.2664260	1.0917982
-39.6683380	17.7299160
-29.3394130	34.9118620
-11.7075750	39.2894000
9.7834146	36.8802050
18.7706180	22.8626280
27.5992280	7.4282117
18.7897850	-5.7201212
10.0388600	-19.0855640
-6.6376935	-17.2957870
-15.7633760	-11.4550720
-23.8561750	1.9276925
-19.2380240	19.7347280
-6.6342629	27.5030020
11.2034270	27.1203470
26.8024890	20.5171840
34.2021490	2.1086166
31.5687310	-13.8969820
19.5913760	-27.9784100
7.0290844	-33.4425210
-8.1813691	-29.8612420
-20.4695300	-23.7641900
-29.2908910	-10.8411860
-32.4321670	4.5122011
-24.0426070	12.2084350
-21.2590910	24.0482600
-6.8680276	29.2713740
4.1960005	32.6423070
12.0233400	28.2312120
23.8001290	25.1061490
32.3111070	14.3128770
35.2862000	-1.1192153
31.4695330	-13.1712490
23.0155980	-22.1547570
8.3201641	-29.6971440
-0.1944463	-26.6344810
-14.4175630	-20.7631370
-14.8461070	-9.5016092
-17.3985090	-0.8768418
-7.5455053	4.7715299
-2.5971916	6.1683638
1.9917043	0.8799999
6.7582833	-5.2507771
0.5831886	-15.7375460
-7.5307922	-16.2466650
-15.1932760	-16.9583410
-25.7610030	-7.0870415
-29.5850720	4.7573829
-24.2389530	14.6445880
-18.5735840	23.3289990
-4.4993963	28.2194270
10.0920940	31.6177660
18.9963250	24.2505070
25.7732810	11.9239690
27.4610720	-0.4489694
20.8794260	-13.0504590
12.0051960	-22.4381820
1.5879910	-30.4753820
-14.8429750	-26.9333400
-24.6798210	-21.0461380
-31.9634930	-6.4495165
-33.6172670	6.7546509
-28.6120750	24.5896670
-17.6443550	32.6259140
-6.1514030	34.7796630
8.8057255	36.1929920
21.7240640	29.3437910
24.7107110	19.6924180
27.5460640	9.0133099
20.2374280	-1.5757520
19.8187830	-4.6212021
14.8465870	-3.2752020
8.6438996	-2.9838054
9.5970574	-1.8813805
15.3076040	0.1007428
15.8681460	0.1271427
20.3069640	-5.1657700
17.9355230	-15.8938040
16.3093660	-20.4761650
7.5337021	-27.6768590
0.1925521	-28.6211190
-5.9493666	-30.1886090
-18.1919860	-23.9454580
-21.9386750	-17.2059510
-30.1347960	-8.4925742
-28.5469170	0.5066548
-22.7360970	9.5540925
-16.9574440	15.6370710
-10.3946400	19.4770010
1.9360260	21.4900710
10.1611780	15.1562250
12.5967520	11.2189210
15.8153930	0.5278500
8.9121071	-7.1162496
3.7465032	-11.7363670
-2.9318909	-12.4408150
-6.2246375	-5.9642991
-8.6410717	-1.1728186
-11.9919710	3.3929420
-6.3475980	9.9478658
1.7483733	8.5329387
7.5639291	8.3055007
7.1679595	5.3359325
7.1881120	0.6760989
3.0679187	-5.4109998
-1.8928776	-6.8773563
-7.5468869	-6.7856842
-11.1223820	-3.8619164
-12.0342820	3.0812382
-10.5842660	12.0659510
-9.2576645	17.4377290
1.4386898	19.1762460
4.7584143	21.5960120
14.6928180	16.6790070
19.5879950	9.4561429
23.9806230	0.4271070
25.3544090	-8.7592141
21.5619490	-17.1109940
11.9257440	-20.7848770
4.7508601	-26.5277350
-5.3702579	-23.2751820
-15.2366330	-16.6622950
-17.9078160	-8.3536930
-17.0123420	-1.0101234
-13.2330250	8.2227468
-9.5991816	12.2202640
-2.3749833	9.7537560
6.1466149	6.5165046
10.0711230	2.9842797
11.1596410	-2.9853334
8.9030700	-3.3543460
2.7761690	-9.9232989
-1.2528946	-8.0800665
-5.4825341	-7.2597238
-2.1895002	-2.8458745
-5.6482806	-0.7967683
-4.7338218	1.6389325
-1.7544525	-2.9419818
-0.4304993	-2.8751923
-0.0438738	-3.1673963
-2.6194634	-6.5229100
-1.9272847	-9.8884774
-8.8885997	-10.3575830
-11.9021970	-7.0774462
-16.5410690	-5.1208828
-15.9151890	3.1727184
-19.1849970	6.8675686
-18.1358420	14.6821660
-10.5664590	18.3865580
-2.3710040	20.8988740
7.1137714	20.0935100
15.4687170	13.1682100
15.7740180	8.9584750
16.7036480	0.5296869
9.7189369	-4.8626001
2.5519055	-10.9922650
0.5104197	-8.9404088
-6.1381758	-3.9599163
-8.4769934	1.0124703
-2.0195664	4.6714864
-0.7447181	6.6359667
1.5345486	8.0336683
7.7462751	3.9519114
9.0580810	4.8788079
11.8630810	-0.8763143
9.9314793	-8.0495815
6.5552337	-12.1621110
0.4186133	-10.8862950
-4.5592015	-8.8751731
-4.7888103	-9.6534715
-5.7792040	-3.0477081
-8.0055997	0.8972435
-5.2807739	2.8226861
-3.4729387	9.2542038
2.0708039	8.8539754
9.3611236	7.8694059
8.8147120	1.4418952
8.8391492	-7.1921799
5.4056102	-11.0261570
0.1328582	-16.3774540
-5.2949816	-12.6467170
-10.5310060	-11.0603740
-16.9612430	-7.9407983
-16.6859340	2.3591518
-15.3491050	10.6328020
-12.6628920	15.9169260
-1.4669912	17.0338460
1.9828762	14.9308520
9.4861977	9.4465198
10.8375320	6.7728752
12.8592990	-1.6008607
10.5009700	-4.2391076
7.0586961	-7.6628456
3.2656145	-10.2094560
-0.4117989	-10.0268700
-2.5182463	-8.6457396
-4.5796135	-6.0604530
-6.1043918	-5.4566876
-8.0431218	1.5638908
-6.9661190	5.1007986
-4.0504071	5.3336987
-2.4985475	5.4757066
-0.8244392	4.0771121
0.2710343	0.9141210
-3.6747628	-2.4336279
-6.3187238	-3.2546915
-6.2243896	-0.9515748
-9.3787745	4.6786288
-8.3467628	6.8815899
-3.8318107	9.4892882
0.1145792	13.2998170
5.9426585	14.6211420
12.9602320	7.7152029
16.5157790	2.0360270
16.8850090	-2.4263894
9.9498423	-7.3424887
7.4492702	-11.3231500
3.1436197	-14.0472150
-0.9570936	-11.6754750
-6.4644186	-5.4493324
-2.9845159	-2.9692010
-2.7387245	-1.5633616
-5.2012005	0.3263107
-2.7835585	1.1557372
-3.5304546	-1.2860728
-1.1000329	-1.0781930
-2.9582578	-4.3003563
-1.3817017	-0.3851386
-2.4158583	-0.9149827
-3.4698514	-0.7247670
-4.0261960	-2.8904730
-4.9384560	2.0728176
-4.7460274	-0.3100213
-3.3306908	5.6803986
-4.4752151	6.7346748
-0.4466383	4.5260826
0.4742311	2.7002655
3.8409742	0.7129404
4.2819212	0.1636359
0.7306480	-5.4282860
0.9498811	-3.4714407
-2.5210169	-7.4647654
-8.8627868	-3.6022345
-12.9977480	1.1419445
-11.2614960	9.9222240
-4.8010955	10.0620090
-2.7942957	16.0993960
1.5997992	14.6201430
6.8750724	16.6782140
12.3819630	11.7770890
13.3349580	1.7343622
14.5679240	-3.9691079
10.9489330	-4.9013195
7.5826476	-11.2000910
5.9557381	-11.7083180
1.0219533	-12.6455460
-2.4882652	-6.8485919
-3.6125795	-5.8242201
-4.1948375	-5.8021378
-4.3783940	-4.4072940
-2.7279174	-2.5719778
-1.3209433	-5.1856539
0.3055067	-2.6525931
-1.6741471	-7.0139487
-6.0194106	-3.5532785
-7.4499996	-2.5958144
-9.8796030	-4.2931291
-12.3799210	0.5844367
-11.1629270	4.3426692
-6.8548329	9.2758680
-7.6620978	13.4807730
-3.8249801	14.4324030
1.4735572	15.2388510
8.5910521	7.8917570
11.2161260	8.4966830
12.4701710	-1.2785371
10.0970130	-4.8229831
11.0099780	-9.6215818
3.2578509	-9.8639341
-0.9255638	-12.0915440
-2.5568987	-10.5221910
-8.2719540	-7.0788570
-7.8546441	-1.0782277
-10.4864080	0.8522544
-5.8220076	7.7089761
-6.0515357	9.5577801
-0.1858155	6.7267377
3.4293242	7.3923882
9.7762615	2.8675389
7.7201951	2.3005306
8.4395593	-0.9859551
3.2637812	-4.0373510
-0.4924520	-5.2725138
-1.6289010	-7.5637500
-2.7121720	-1.6208556
-5.0834823	-0.5128396
-3.9465266	4.4126721
0.8357893	3.1849239
1.7547443	6.1917357
3.1363844	1.6442837
4.3168902	-2.9057204
3.1475910	-1.9059605
5.4728773	-9.0280024
1.8396514	-7.1719940
-4.7948147	-4.2956781
-4.3917026	-3.1661844
-4.5698621	-3.2115257
-6.0116510	-0.6349807
-4.8354578	4.7948839
-3.0281764	7.6864751
-2.2898833	7.3277295
0.5237843	7.1133891
1.2666382	1.5447547
5.5652579	3.1951259
6.2098670	0.9482288
5.3470581	-0.3491632
0.9898371	-2.1283740
1.4370836	-2.2009039
-1.5117918	-3.0089287
-1.2118006	-5.6206915
-1.4829233	-5.7718231
-1.8625804	-2.7110270
-5.9566301	-0.8335310
-7.0200977	-2.2266755
-2.9847873	1.9965865
