jMRUI Data Textfile

Filename: dataset18_WS.txt

PointsInDataset: 2048      
DatasetsInFile: 1         
SamplingInterval: 2.5E-1    
ZeroOrderPhase: 0E0       
BeginTime: 0E0       
TransmitterFrequency: 1.2322E8  
MagneticField: 2.9E0     
TypeOfNucleus: 0E0       
NameOfPatient: dataset18_WS
DateOfExperiment: 
Spectrometer: 
AdditionalInfo: dataset18_WS
SignalNames: dataset18_WS.txt;


Signal and FFT
sig(real)	sig(imag)	fft(real)	fft(imag)
Signal 1 out of 1 in file
275.2017600	-115.7318800
508.1308300	-219.1855600
362.5286200	-382.8846000
167.0536400	-452.2292800
-36.0526010	-424.6083700
-167.1320800	-307.3420800
-214.4104500	-179.7911600
-196.6297000	-51.1326800
-143.0907700	33.0900300
-46.4401960	50.0060070
14.1790520	19.7336290
26.2685850	-18.4567790
28.0362460	-66.8759500
-2.5107601	-95.7594830
-42.7224030	-94.9490700
-72.9965120	-77.9311160
-88.0275270	-40.0010140
-93.0770550	-11.7208550
-95.9013340	3.6360530
-80.7163880	24.2183910
-83.4580920	44.9641110
-51.7910230	78.4756850
-37.3670440	85.8484640
-6.3662703	84.6469810
31.4920510	76.4824130
51.4826340	47.3282280
66.5151890	7.0005404
48.0401850	-20.6748010
20.3980870	-49.4695640
-13.7521050	-48.8668220
-44.2778230	-28.0013460
-57.9748920	0.0599533
-48.1638560	31.5121670
-28.8349830	67.6886740
-12.2463590	88.4080920
37.3947680	86.7081150
66.8798630	49.1232360
60.4602290	33.2598110
80.0562290	-0.5817809
69.8123190	-7.0681964
56.1330160	-26.7963760
53.2124720	-54.4258200
31.3517890	-57.3946420
3.6797417	-54.5578460
-10.9068770	-54.1707440
-13.1495450	-33.1038220
-18.4683570	-25.1862060
-24.4714290	-10.6811250
-16.0977200	2.8034292
17.8334200	3.5383302
28.5147570	-7.7945253
14.8867550	-23.2688140
-7.7620367	-36.3596100
-28.1227200	-57.6382170
-47.9898150	-40.2883990
-65.9275840	-6.4830425
-74.0268740	29.2403370
-37.2299160	57.1234830
-10.3012730	69.7397110
21.1279230	68.2871520
55.2408420	48.0326080
83.9278300	10.6119210
60.3956980	-31.6708910
39.3200390	-48.4990780
18.3292610	-67.5458160
-22.8792460	-66.2357430
-41.6603860	-40.1664090
-45.3626590	-24.3490820
-30.0438750	-8.2420719
-34.7166650	15.8886690
-32.9810790	21.0635830
-24.5516750	4.5662275
-13.0225570	8.1082915
1.5232857	9.3389731
9.9732321	-0.9528797
2.1828924	5.8582582
-4.7981022	4.0139589
3.1031888	-15.0550110
-6.5824881	-21.2796330
-32.3360940	-17.2791540
-47.0659670	9.2578030
-38.5411030	27.1142080
-25.0234120	36.2854390
-12.4851290	52.4319530
7.5809373	70.5571560
31.4385270	45.8743940
57.2487450	30.6665000
63.5300210	-10.6483680
44.4849940	-35.3030520
23.3473000	-48.6523520
2.4394459	-48.8247810
-26.3401350	-23.8657260
-29.4517920	-2.9606828
-24.5846860	24.2676680
-2.9153552	38.3439160
14.6899740	42.6491750
45.0016950	24.6570770
39.3373510	-7.5403737
46.0598130	-16.7244320
43.9484630	-33.9659100
16.8675070	-46.4936810
-3.2985667	-58.7642240
-17.8329600	-39.3778500
-35.8446280	-42.4438260
-38.9383440	-25.4236260
-50.9001930	-2.6764973
-57.5124760	17.4010560
-41.2463450	33.2051710
-23.1784750	37.0129840
-8.3426101	47.0926510
6.5483534	45.8466760
19.1138340	29.0201070
42.2948730	2.9841121
30.9430050	-4.1488756
23.0156840	-9.5171659
-0.1938770	-9.5595968
-14.6820840	-20.4179120
-11.8354390	-7.3454287
-13.4401660	22.7757540
4.7655674	25.7218530
18.2956730	16.3576410
28.5757720	12.0659000
26.3784330	6.1333900
15.7907980	-19.5034690
12.4795880	-24.7589380
-1.0315964	-34.3186230
-18.4215720	-28.3469220
-18.1890030	-23.6284000
-26.6733010	-13.3844420
-28.5763420	12.5712480
-25.8998690	29.6247080
-17.4543190	31.0521760
-16.9413680	36.9308300
-4.8938835	32.7507440
24.9192920	33.5169200
22.4866310	26.8122370
24.4764610	1.4692642
40.5910490	4.7521059
44.9675060	-14.9201190
16.6229480	-32.4936900
10.7208240	-31.4494370
5.1226241	-24.8626300
-24.9845030	-29.4011890
-13.9037040	-20.8972570
-12.0571380	-15.0285320
-21.6296650	-1.1964229
-5.7299623	11.3877400
-12.2239340	1.0614896
-9.3884185	5.3098722
-6.0029887	-5.7559302
-7.3675244	-8.2550807
-23.5539970	-6.2155386
-15.9943260	-5.9638010
-29.3693110	17.4739060
-17.1558670	20.7603830
-13.1196770	31.0551670
-4.5424768	36.6137720
5.7276932	30.2406110
32.4670010	13.8190430
21.7835610	7.1464260
32.8895700	-12.1071360
24.7470490	-8.8494249
6.3105120	-21.2730840
-5.0777641	-38.6456660
-23.4579090	-34.0850360
-23.8245380	-12.5021630
-27.5582140	-12.2718330
-32.2164400	13.3618100
-44.3995650	24.5186370
-19.0308430	42.8353210
-19.3702330	38.1079020
15.1970440	30.2312870
22.1262540	22.9543090
36.3105940	16.4476270
31.0491830	17.1929320
31.3251550	5.4896859
30.5040000	-6.6806578
28.6073170	5.6491334
20.3393810	-8.1750706
14.7524770	8.4202295
30.8884660	-5.7140838
21.6825350	-12.0629550
29.9718290	-16.1423870
22.8970070	-26.9536340
19.3662410	-19.8856860
12.0413690	-29.6424220
-10.3242840	-37.0773060
-10.4421070	-44.1452790
-13.8546790	-31.8666710
-20.1889920	-12.4811250
-28.6805980	-7.4406541
-25.4069530	0.0792000
-21.7671170	7.2490069
-33.4227400	26.3130220
-12.7424410	16.2587470
-9.4458342	28.5185000
13.3591060	26.0387780
0.9791839	14.9909370
5.8447596	16.3543880
1.3533507	-1.9035042
-1.3533352	0.7323787
-2.2526399	-17.2400880
3.8452525	-9.7122327
-3.0143944	6.0070949
0.9414231	10.1074730
-2.1525380	-1.5789616
-1.6784366	9.6226945
11.4028240	5.7896900
6.4998192	-10.6866820
2.5761668	-14.5989810
-0.3575125	-2.5017910
-3.7207419	-18.5621070
-15.8472420	1.2233111
-22.7593000	-8.8755881
-8.1776255	8.4507881
-21.1973530	17.5940060
-18.0938420	21.6076520
6.7110656	17.6779310
-1.1511893	32.7280350
22.5522410	31.8567330
21.4911390	14.5296000
18.0492500	15.9845870
38.9947110	-10.0665670
31.3191240	-13.7797640
27.3706950	-19.9615770
16.6933760	-30.2468620
0.9614087	-30.9536170
-15.0263690	-18.3757300
-9.6171674	-5.7411364
-12.3413680	-5.4558815
-12.5495860	4.2957646
-1.3116220	9.7341304
-0.6789028	6.9838290
12.0695730	1.2001415
4.4328362	-8.9466140
12.5986920	-1.1779134
1.8262057	-12.9808670
7.8827205	0.7110694
-4.0792975	0.3914159
-1.2276552	-1.3464146
-8.2165808	-6.4053431
1.4733571	-10.6458810
4.0059788	-5.8403881
3.4940674	-2.1857533
-0.6575908	-10.2181380
-3.2048732	2.5514663
-3.2052868	-2.6650204
0.5454336	-13.6986090
-8.7182358	-20.1770520
-17.9083240	-13.4834290
-6.3003322	-2.7163262
-29.0093270	-8.8541188
-17.8646440	11.0208040
-11.9095200	15.0364540
-10.1205630	25.1637480
6.2548214	15.6047560
12.1623100	16.3012400
5.7842510	8.4103752
6.5415817	3.9588710
13.0900240	-8.0772410
1.8561099	-4.5864701
1.3527376	-9.6902859
-4.1534507	-12.6507470
-11.3527700	-1.8992699
-11.6415200	11.9801250
1.3727403	-0.0971132
6.9683869	2.2629998
6.3229370	8.4202641
22.5340490	17.5898120
13.5487940	4.4471403
11.3937580	-11.1014970
14.0217620	-15.5674790
11.0194120	-5.2638522
9.0388684	-24.6867900
-9.7706301	-8.0987539
-9.5284888	-21.4010460
-18.2783130	-9.0470933
-20.1047730	-0.2413538
0.2203152	10.4743560
-6.4963846	10.6160830
7.3253688	14.3138400
9.6954357	-3.1490878
-4.4198288	-5.2248898
15.1516450	-7.8400855
14.0826650	-2.9427095
10.2138610	-5.5005805
-1.6233486	-12.3587300
-4.1488976	-16.6409560
-7.9905822	3.3031342
-16.4696300	1.0314163
-2.4674769	3.5503396
-10.9319600	6.5254734
-8.7528968	21.0616560
5.2581738	11.9576610
4.7771364	7.6416330
10.8086020	-2.8194934
25.4767120	-12.2379820
7.0610865	-1.8382740
8.1509359	-19.4294970
8.7634651	-7.4687143
1.5959326	-11.7517700
-12.2903550	-3.1808180
-15.0728250	-0.5137050
-19.6894790	-4.0188227
-19.5790550	-3.8919869
-6.4079302	-4.5660541
0.1858055	4.6988621
3.1462465	1.4093903
3.1210279	13.4607360
2.2056175	-3.0703266
5.4650100	4.4039329
-5.7210480	-7.1594252
-1.5128223	6.6379847
-1.6798598	-0.5405988
0.6275266	0.8068024
-9.6235809	14.4462490
14.1811270	6.2349181
16.4203910	14.4915220
12.8188190	11.7004960
17.7747170	8.7866405
9.2656689	-5.1239331
15.6221100	-16.3877570
6.8450311	-3.2355472
6.6029916	-9.5355356
-4.0350766	-7.8000410
-6.8380289	-1.5068834
-6.0486242	3.7504673
-11.4747960	2.7463266
-14.3599700	-11.9313720
-6.2522014	-5.5987782
-5.3092762	10.2671380
-2.7731312	-5.6106834
-0.2524506	9.2183851
5.5413859	-9.5677248
7.0539249	5.2183234
-13.2104060	-9.0292874
-11.1794770	7.0235859
-14.7665770	0.7291270
2.3469312	0.5422042
4.8758840	4.2281272
-3.1823357	13.1755380
6.7247002	-6.2647924
1.4274911	9.8467828
12.4503440	-6.3246459
-1.4131683	-10.4543290
-8.2803626	-8.7311896
5.5569039	-10.1818170
-12.7946260	-6.4796644
-17.4951210	3.4077027
-16.4224140	4.4127000
-17.2932240	4.7134970
-10.3156690	9.1656742
-10.1698950	14.2498190
-5.4833648	18.8776950
20.4206430	26.6492320
11.9515030	12.1973470
12.0928750	0.3422006
20.4268150	-4.0888226
19.9074840	0.8515740
7.3648542	-1.8580255
11.8517950	-1.8603311
4.9411568	-21.1807730
-2.2602354	-12.4245640
0.4930664	-21.5331620
-1.4538019	-3.4461999
-4.5970567	-8.5411368
-2.3321276	-16.3160160
-6.7702370	-16.6277960
5.4576512	-12.7070840
-7.5142079	-11.2438220
-5.4192708	3.3100997
-16.4573100	3.1051940
-4.2883409	-9.8139876
-10.9334680	-6.4874981
-12.1221640	18.8197290
-20.8473350	15.2010290
-6.0613830	9.6721066
-8.2645726	25.6205560
10.0212850	20.2742280
14.2215110	18.7308330
12.2719790	9.9794435
10.3547400	-2.8840486
9.0239419	-12.8425960
5.3781401	2.6057106
7.1306772	-2.7658554
1.8846741	-12.4138110
3.7018864	-22.2775800
2.2591817	-2.1780508
-2.0587108	-3.2521924
2.2853010	-11.9854180
-11.8695480	6.6056738
-9.3931470	2.7713353
5.4276779	13.8468100
12.1123650	-2.4644059
-0.6703069	8.3211497
11.7593930	10.7983370
1.0363310	6.5966220
-6.4813295	-8.1123972
6.7411776	-1.5992369
-3.0515919	-14.6790820
-16.5690210	-4.4845122
-16.0372540	3.4779253
3.1713488	-3.9745994
-6.9579534	1.5756425
11.6720130	-1.9377710
1.8284959	12.8280830
12.7790000	2.9821354
0.2500458	-6.7112818
-0.9391719	-10.9359080
8.2347742	-8.8307104
-9.2057280	-12.1018940
-3.5007165	-15.1907330
-11.2177610	6.0213570
-16.9699760	-4.7592739
1.5244129	7.3663733
-7.1831141	16.1472520
2.1165127	10.6710140
-5.0074743	12.6701020
-1.1114276	10.6219740
9.9903944	-1.7330092
3.3835803	-10.1380120
0.6612651	-6.9507980
12.7504760	-8.9802517
3.8479632	4.5977439
10.6936250	-2.5285730
1.4213214	0.9628424
-12.9956060	6.0481730
-13.0030050	4.0967282
