jMRUI Data Textfile

Filename: dataset9_WS.txt

PointsInDataset: 2048      
DatasetsInFile: 1         
SamplingInterval: 2.5E-1    
ZeroOrderPhase: 0E0       
BeginTime: 0E0       
TransmitterFrequency: 1.2322E8  
MagneticField: 2.9E0     
TypeOfNucleus: 0E0       
NameOfPatient: dataset9_WS
DateOfExperiment: 
Spectrometer: 
AdditionalInfo: dataset9_WS
SignalNames: dataset9_WS.txt;


Signal and FFT
sig(real)	sig(imag)	fft(real)	fft(imag)
Signal 1 out of 1 in file
269.2208400	-110.7463100
485.3971500	-217.6120800
332.5138300	-373.8623500
138.2469600	-433.1429500
-45.1209390	-395.4764300
-175.7231900	-286.1734600
-226.9182200	-144.5400000
-193.3632900	-19.2309600
-126.8707000	52.8119190
-38.5996380	73.3051950
22.6755900	50.8326010
53.0598460	-6.5676763
46.1955850	-54.0908500
15.1571480	-77.2041130
-24.5289050	-83.8029810
-59.5284890	-76.9547310
-82.0429160	-59.3775920
-83.1638150	-24.2998040
-82.8636670	-6.8131325
-89.6683040	17.4008940
-73.1940670	35.1521060
-64.7647650	56.0004150
-42.8729430	72.6263180
-4.1134978	77.5331330
17.2692510	63.7706230
48.9968920	42.4148370
48.3880730	7.8491275
37.9041880	-14.8657730
16.0863800	-43.4324300
-26.5641570	-42.7519470
-47.0772700	-12.9705570
-64.0142490	15.5863110
-57.9902860	53.4437590
-26.6625560	71.4233700
11.1375010	87.7976730
41.7566340	73.1735670
70.1439950	57.0352640
75.4112640	35.8083860
85.1664590	-1.3685232
75.3426820	-19.3215440
61.3731670	-43.9662780
45.5564610	-48.6348710
24.0577390	-62.1041180
8.5281300	-58.0253930
-10.9941640	-50.7590940
-29.3581920	-38.5121540
-30.6448400	-24.8620920
-25.2822400	-2.7918467
-8.9369461	9.0263799
7.0929861	7.9637298
22.6055450	-8.8777175
13.6335460	-23.8987210
1.9809672	-41.4893950
-20.8013360	-52.5923550
-50.8142120	-40.4780990
-67.3908570	-16.0959130
-61.3641700	21.1704070
-39.2939450	48.1394660
-13.8410600	67.9376270
22.6405920	63.6319660
55.6603040	41.8323060
63.7109250	4.1089328
56.5451380	-36.9840730
37.0709670	-60.8356780
3.9784158	-65.4104740
-24.1980490	-53.8363830
-44.2966650	-35.0121950
-52.0244830	-10.4984240
-46.8188460	2.5636123
-36.9002990	22.0252500
-27.9789000	23.1422950
-16.5367760	34.1954930
-3.3554438	26.6557820
-0.5837510	30.4411900
7.2703083	17.7000830
15.6693130	17.0484500
20.1167850	-2.5138592
14.9366100	-6.6000447
4.1761864	-19.1119350
-12.3731760	-22.1466290
-19.4871860	-10.2504510
-27.0046680	9.4652800
-29.5163640	26.2395450
-9.2475533	47.1486650
12.0166880	48.0927450
32.8842010	33.3476950
45.5396830	9.2190648
52.8855590	-11.5568700
36.6000160	-36.3133310
10.3579010	-49.2785350
-22.1502010	-40.2026590
-36.0884930	-21.9208370
-39.8854230	2.7908669
-32.3431660	30.3175890
-11.6081800	39.1721190
14.5978080	38.6219620
35.8832230	26.2901620
46.1272120	13.8311540
47.4616250	-6.6666947
39.0299750	-29.6274970
23.6081670	-41.7798300
8.8372690	-51.7315580
-10.2223640	-44.3846630
-25.4691110	-45.7041500
-41.8374210	-31.3114020
-50.1023720	-16.7376940
-42.9528840	4.0935137
-35.2011630	19.5579950
-22.5593700	38.2928200
-13.2478840	34.8141570
9.0368549	40.5225710
21.3374530	22.5647680
28.2055690	8.4372405
21.3756680	-11.9445280
8.9890904	-22.9365070
-3.7152313	-22.5483390
-20.9494950	-11.0814880
-23.7865570	4.1285611
-19.7701090	13.9955220
-2.3142794	26.2045040
7.7359731	26.5397840
27.2293810	13.7400600
30.2826000	-0.0879107
24.4798370	-14.0532700
23.9083080	-30.1729560
8.5963231	-30.5124360
-13.1512280	-28.2856350
-25.9424080	-24.2029170
-27.6807880	-5.3257839
-30.5152750	-0.1694209
-22.6877650	17.5792840
-17.9192630	24.5773320
-4.7199750	25.7117240
6.0631231	32.5062750
16.4990400	34.6145260
17.9223270	22.1449720
29.1530760	17.1215300
30.6504280	-0.3165452
35.9513330	-12.5050550
26.5415030	-23.9372270
5.0383649	-26.4151280
0.0429861	-22.7097600
-10.3122890	-25.3329230
-20.4401860	-7.4932909
-17.3434890	-4.7258198
-6.3437668	7.6955701
-3.6392161	11.3310980
3.4183759	2.0754786
6.3438211	-10.5135520
1.6428092	-17.6299850
-5.5478860	-19.5028030
-15.4554060	-12.8523060
-20.3366460	-12.6491630
-29.3050570	6.4900389
-24.2027730	19.3668170
-20.9623710	20.3751240
-6.1477930	27.7504170
11.4521640	32.3247150
16.7728180	20.1236690
31.2645780	14.9688580
23.6525540	-0.2403979
21.9948240	-16.8631660
18.1821970	-19.8824240
-0.8647074	-26.0180510
-9.1826076	-30.4776070
-21.9931250	-22.3703110
-33.6665400	-1.6166450
-38.8574300	11.3471150
-28.6889670	22.5567410
-20.8800960	38.1405480
-2.9084851	36.9632440
8.1075034	37.6457540
25.6932700	30.0029260
24.8702410	20.1944510
21.9163930	6.0390526
26.7592380	-2.2796978
13.2061640	-8.5361240
11.3058430	-8.8146187
9.6759489	1.1162345
5.8260355	-2.5456874
11.1266490	0.2259693
21.9054440	-6.4996493
17.6654270	-10.7973590
22.7354010	-15.2166530
13.6377320	-15.8441880
6.3885123	-20.4650530
2.8395321	-29.8087630
-1.9626188	-25.7497410
-14.4204270	-21.6662290
-19.0994500	-22.4366780
-31.4570430	-8.1682196
-22.5307780	-0.9479211
-27.3019040	8.5941359
-21.1044730	14.5144130
-13.5606140	15.1460020
3.2012798	19.9523520
4.9024076	13.1687150
10.2997400	5.8250415
17.0520710	2.0482602
7.7280285	-8.2209561
2.2120818	-14.7984560
-1.0638973	-7.0494288
-6.8942532	-11.9360170
-8.6778647	-5.3413830
-14.4520840	10.2483950
-5.0229446	11.2888370
1.0839716	7.9649636
7.0644276	10.2253020
9.6426477	2.1046214
7.6923423	-5.7910556
5.3984010	-6.1208639
-5.0366916	-7.5255192
-2.9247452	-10.0325330
-9.2526426	3.1376631
-10.2754400	2.7807499
-15.5105990	11.4530540
-10.8937930	12.4990190
2.1058114	15.5548300
8.9124741	24.1798650
12.5629970	17.3005750
23.4593300	10.4858770
26.6061620	0.8985732
30.1807800	-5.6071628
18.0464230	-13.3537300
17.3163960	-17.0114580
0.7318433	-22.0526720
-8.3187373	-20.1880370
-8.9016402	-13.3842060
-15.9983810	-8.1617385
-12.2477220	1.6275944
-15.1610680	2.5861943
-9.4241455	8.9698934
0.3125967	16.3009510
4.9797753	6.9221962
13.1354370	1.7059180
4.1992636	1.8944501
7.3696120	-4.9959913
9.1474763	-6.9203009
3.4767581	-5.7725477
1.5254082	-8.1978968
-9.4133490	-0.1947503
-3.0847353	-7.3705939
-4.2151953	4.5373412
-1.9563469	-2.2204580
-4.2106828	1.7969229
4.5822142	-2.1732464
0.3035828	-10.1456370
-3.6196464	-13.2529070
-2.5447851	-6.1739401
-14.4280590	-9.6647913
-14.9933830	-9.0790730
-15.0238410	4.8458098
-22.9223650	3.1297679
-20.2909030	18.7863290
-11.5592190	16.7479940
-1.3174576	23.9135330
9.5019749	15.1474730
8.2621571	10.5528990
20.1393330	7.5984969
12.3128850	1.0343993
11.0794850	-5.7426237
10.3135390	-3.7734121
-1.4059713	-4.3957321
-5.5583785	-4.1769847
-3.3926318	-2.0414005
-6.0494524	4.9704129
3.3673364	5.5668113
2.1425392	4.9803127
5.4294540	5.9193689
7.6463926	3.5555947
11.1447300	-1.5913791
8.4336582	-7.9076708
10.0239550	-15.0854800
5.5484939	-10.1859330
-5.7611845	-8.4773876
-3.6847719	-2.9140224
-11.5519010	-5.8341101
-11.6612490	4.6453215
-9.2686377	1.7741962
-4.5101335	8.6308621
3.4804215	2.2455399
9.6739870	5.1871633
11.6873200	4.1972485
13.7965680	-6.9221735
9.0377384	-7.2047813
0.8099214	-12.1670050
-5.2177097	-11.4974320
-6.7674842	-13.5303070
-10.7130990	-0.7097296
-22.1319250	-0.9645163
-12.5305100	8.9795707
-5.3689922	19.0774860
-5.0271524	18.8325080
1.5810278	20.7335530
15.3016550	16.4483660
9.7916344	11.3525230
10.8991610	1.4999003
11.4756450	-6.7341577
6.1379837	-7.4295593
7.6489524	-15.3381890
2.3550217	-10.6522960
-0.2440070	-5.9979356
-4.6266799	-9.6042544
-12.9690180	-1.3112192
-13.1055260	-0.9386886
-2.9588852	-0.5851167
-2.6288444	7.1389412
-2.7012059	9.2213945
3.6245579	1.9908085
3.2165538	0.9317956
1.2715956	2.2148855
-5.4281311	-4.2333346
-9.0252265	-3.0761165
-3.6571818	8.4842983
-11.6426980	2.9553704
-6.6802096	12.6836530
-3.9356295	14.7775720
6.3818336	8.1158783
12.6515550	10.9492100
13.2832320	5.4652988
16.9991350	-7.4358354
13.3029840	-8.4954748
9.1707576	-5.5365738
2.5358101	-11.8683300
3.8925270	-6.3717687
-0.7152300	-12.7565590
-8.4118633	-6.1087978
-6.7538071	-3.6790891
-3.0814639	-3.5576888
-7.2422800	0.8622627
-3.5725659	-3.7909998
2.4459075	1.4735041
-2.7373178	-2.2581425
-4.6443189	-0.7605648
-4.9272815	-2.8194356
-8.7000326	0.6614913
-6.4421181	-0.9015813
-3.6777004	0.9752552
-5.6499794	4.1312384
-4.0894948	5.6419460
-2.2694606	3.1913226
-3.4323697	10.4591840
4.6538986	6.9893056
7.4600818	3.7390339
8.7330212	-5.3692143
4.2566007	-0.4746623
-3.4164673	-5.8878934
-8.3421130	-4.5505123
-9.4617050	-6.5419049
-13.3148540	7.4373454
-10.1889420	7.1682709
-12.4102220	17.2774170
-0.2021101	16.0437470
5.2543115	16.3068680
6.2001371	10.2615390
19.0088650	12.8352470
12.2406620	5.1851837
14.3879800	-3.7778780
16.5519520	-2.1336581
4.3672539	-13.0885900
8.3636819	-8.9936013
6.4987363	-11.0196750
2.9701623	-13.6573590
-7.4979498	-10.1488140
-0.5271837	-3.9048008
-5.4347039	-2.6776426
2.4772535	0.3523693
-6.0252970	0.7150477
2.0344064	-0.6623135
-6.2963230	-8.6354677
-3.6803929	-6.5735438
-9.3656014	-5.6585733
-6.4055355	-3.4916972
-12.8173070	-6.0956414
-16.3528070	-1.6753193
-7.4329951	12.1228920
-7.0329287	15.6337030
-6.0573543	11.3121180
3.2847552	17.5557210
8.2664128	12.2758490
16.4919600	5.3735921
8.6205682	6.5978391
12.6063790	0.5848923
3.0940553	-4.3398770
-0.6128309	-4.5740845
-2.0196149	-12.8669800
-2.1607395	-13.7745810
-2.2758788	-3.6973075
-13.0013200	-5.5610413
-7.1807443	-1.0807439
-11.6684460	1.0449222
-9.0096424	4.6908022
2.8594108	13.8464380
-0.2655956	3.1814492
8.3386063	2.3239881
8.8886548	1.6947232
3.1252745	-6.0454952
7.6981939	-2.2429976
0.5552767	-9.9352672
-5.7131681	-8.6180679
-3.0962960	-2.2233843
-8.2986453	1.1971813
-2.2375397	-1.1398454
-4.4209275	8.4056459
5.7118156	2.5079098
6.2044546	-1.9132232
6.1267964	-1.1402554
6.1199512	0.4076318
5.6317921	-9.5782809
-2.8338068	-11.1134770
0.3244133	-2.5703898
-5.6493522	-9.7801203
-6.7142466	-1.2707769
-11.6389630	4.1299177
-5.4288966	7.4179126
0.1043472	9.0866440
5.5844641	5.8099385
0.4231263	10.0837530
7.4975445	8.4141844
6.0994269	-3.9899829
7.9685554	-1.6406440
3.0065090	-4.6966585
-3.0568120	0.0626195
2.9348441	-3.9807671
-3.6304725	-9.6771515
-0.0799300	-7.6300959
-3.2685714	-1.0240686
0.9047381	-1.4887339
-1.2014651	-0.8730974
1.0597471	3.7805703
-5.7188021	-4.0903795
