jMRUI Data Textfile

Filename: dataset6_nWS.txt

PointsInDataset: 2048      
DatasetsInFile: 1         
SamplingInterval: 2.5E-1    
ZeroOrderPhase: 0E0       
BeginTime: 0E0       
TransmitterFrequency: 1.2322E8  
MagneticField: 2.9E0     
TypeOfNucleus: 0E0       
NameOfPatient: dataset6_nWS
DateOfExperiment: 
Spectrometer: 
AdditionalInfo: dataset6_nWS
SignalNames: dataset6_nWS.txt;


Signal and FFT
sig(real)	sig(imag)	fft(real)	fft(imag)
Signal 1 out of 1 in file
56471.1780000	-1.8779751
56324.8270000	2.2944591
56144.2270000	-19.1342700
56002.5520000	15.3915540
55859.8130000	-4.8109805
55705.3540000	20.2486420
55551.3500000	-6.6440742
55379.7440000	17.4932900
55196.1550000	5.9537009
55045.0140000	-20.0760050
54870.9750000	18.7949390
54706.3630000	17.4210120
54545.0980000	11.1671310
54341.1620000	11.9641170
54200.9270000	-12.9718280
54024.5940000	16.9760610
53822.9540000	-15.0885910
53664.8690000	-19.0067550
53461.1710000	-20.0817450
53297.0810000	4.3661937
53118.2480000	-16.7755000
52915.9510000	-4.4972800
52742.7430000	18.2402970
52554.4830000	-17.9925210
52386.0590000	17.1299690
52178.4910000	-6.2444575
52006.6270000	15.3831640
51801.0000000	0.0405434
51608.7270000	-9.7096315
51413.8760000	17.1305620
51205.3750000	-17.9120050
51021.4980000	-7.2780459
50831.5170000	13.0763140
50631.8830000	-9.5786950
50427.6850000	-19.8143530
50190.8410000	1.8066463
50007.1680000	-13.0105400
49808.7050000	8.3998244
49591.4880000	-20.0189990
49378.5170000	-17.3994580
49161.3820000	-18.4690000
48978.8190000	-8.7674402
48739.2360000	8.9249987
48534.9990000	-16.5069220
48336.3310000	9.8316876
48132.3890000	4.6801280
47915.4380000	13.3169190
47691.5350000	18.7673980
47490.6110000	-7.9775260
47271.9320000	-18.9867840
47025.6580000	8.7716723
46834.7390000	9.9359495
46599.8410000	-16.8378430
46367.0090000	19.6330980
46153.7640000	-7.4199952
45962.7100000	15.9972870
45743.8910000	-10.1036930
45515.0050000	-12.5468490
45290.1250000	-17.5777450
45039.8750000	2.1839294
44829.8640000	7.9065179
44586.4280000	-14.5392660
44385.1970000	-4.3801980
44129.6260000	6.4765101
43933.0060000	15.3495570
43674.5580000	-17.9259240
43481.6220000	11.8170790
43248.5570000	-11.4397930
43014.2460000	-0.7897215
42795.3800000	-13.4074880
42555.1620000	8.2501983
42305.7700000	-0.6911646
42078.0130000	-6.3700503
41863.9360000	16.7885400
41612.1820000	20.1568450
41386.6290000	8.2141349
41176.5470000	11.2732690
40929.2790000	-8.9504779
40673.6100000	-18.6260890
40462.0990000	-1.8900016
40217.5650000	19.2687560
39995.3920000	6.4551210
39756.7550000	13.6088460
39501.9890000	15.2004650
39306.6540000	-2.2213731
39053.9350000	3.0728677
38797.8120000	15.3682090
38600.6470000	0.9640769
38339.8660000	7.4697335
38101.6600000	-17.1165620
37876.8600000	-6.7772776
37661.7600000	19.2389620
37417.2340000	-7.5437268
37189.0430000	5.0412892
36955.7560000	-14.5842810
36682.2900000	0.6736078
36472.3970000	13.6059180
36237.4900000	10.1325020
35978.3190000	7.1085586
35774.6520000	-1.4249832
35548.1250000	20.1299350
35314.6980000	-16.0922230
35051.5660000	4.5399104
34842.7580000	-18.5370060
34578.8020000	6.0973021
34337.6790000	20.9138290
34129.8730000	17.7698080
33886.7620000	-7.5173069
33651.7910000	18.6938110
33443.6760000	4.0542646
33186.0600000	3.5453687
32949.1780000	-20.1378200
32729.6980000	-8.9171614
32502.6210000	10.1161550
32271.2440000	-2.4154134
32029.8220000	7.9571748
31812.9990000	9.1728258
31594.0900000	13.1883740
31335.8390000	1.6872633
31126.9670000	-5.2583456
30877.8500000	20.5963270
30644.9530000	1.5443259
30451.7650000	16.0158360
30215.6290000	-13.5061950
30004.3850000	11.0567600
29776.6530000	-8.4897856
29513.6920000	1.2757443
29301.2520000	13.2528970
29087.3030000	3.7294886
28871.1510000	6.5378275
28658.9810000	16.6840790
28397.7210000	11.1289960
28177.0490000	6.7409797
27964.3990000	-18.1691670
27744.0090000	-18.0499010
27529.5920000	5.8611697
27293.2790000	9.0510592
27112.5540000	5.3598318
26870.7050000	-5.3913848
26656.7270000	19.7074370
26425.1130000	-5.8432818
26230.0230000	-3.2304821
26020.8330000	-0.9333119
25779.7430000	-13.5451990
25565.9700000	20.5341180
25393.4420000	12.7472950
25180.4050000	-18.4287330
24944.7720000	-8.1532600
24760.4400000	13.8506170
24532.3920000	15.1098670
24337.2180000	-4.7262064
24105.3810000	-11.0060940
23902.2500000	19.0323040
23683.5950000	20.8545590
23516.2290000	10.2611790
23288.1280000	13.5446800
23080.3930000	13.9222420
22901.7690000	21.0429200
22703.6310000	-8.1537759
22502.7440000	-9.1686829
22261.8990000	21.2668900
22073.5850000	-3.1863745
21889.1610000	15.7197030
21706.7150000	2.1991319
21511.1300000	5.0216858
21289.5910000	-21.2186500
21096.7170000	-0.5838647
20910.0140000	-9.6848112
20694.9770000	11.7704490
20523.3910000	-11.8607340
20322.0270000	-13.6188140
20148.8150000	3.3298115
19959.8530000	6.8933171
19754.4190000	-11.0783890
19565.2670000	-9.5676517
19381.3270000	13.6573490
19199.4930000	-16.7542520
19024.8150000	5.7128086
18851.9150000	-12.2826680
18655.9490000	-20.3421690
18494.5020000	2.9930042
18323.0450000	20.6456250
18135.2100000	-3.7090557
17941.4260000	-9.8463602
17785.4600000	-0.2035214
17581.6660000	-20.7263610
17410.6370000	-9.2447456
17268.2570000	-10.5648410
17093.8390000	-19.9060940
16892.0130000	-5.9023999
16724.6280000	21.0733840
16577.6080000	-21.3938830
16398.9660000	-10.5947000
16244.7970000	-18.4101240
16047.8850000	6.2634595
15902.4540000	-7.4436593
15751.5020000	-20.3307870
15595.7490000	20.1657380
15418.3200000	-6.4968340
15267.9930000	-12.2440690
15087.8430000	12.8217940
14925.9010000	-13.7498790
14767.8070000	9.8732739
14601.5860000	-14.2737780
14453.7050000	18.4538110
14329.1720000	3.5766667
14155.0670000	-14.2306360
13999.5930000	-0.8987138
13869.4670000	-3.6724745
13699.8990000	5.9120734
13541.9300000	13.3720900
13396.0440000	15.8567600
13280.8530000	-10.0808440
13100.7760000	2.8944997
12967.2910000	14.4059050
12830.9360000	8.6810585
12689.9460000	11.9805300
12557.6900000	-17.7584520
12410.2190000	21.2205650
12270.1380000	15.2076290
12131.9370000	-21.1603640
12013.8600000	-0.1443308
11839.2850000	19.9923670
11706.3830000	15.8557630
11574.2120000	10.6891720
11463.0640000	-7.2370495
11308.8590000	-12.2416920
11191.4990000	3.9794456
11087.4320000	17.5885690
10958.1410000	8.5776340
10802.6830000	-18.0170350
10701.3970000	-21.0066720
10576.7380000	-11.3685580
10458.0670000	16.9921670
10297.6190000	-6.8341542
10180.1410000	-13.7224170
10069.7590000	18.6508300
9951.3407000	14.2963410
9842.9495000	0.6030211
9738.4835000	15.9191640
9605.9679000	8.5030326
9477.6490000	1.5205093
9362.8931000	18.7699860
9265.6418000	-8.6045325
9162.0252000	4.9171509
9049.8195000	-1.7983563
8937.2269000	4.2961765
8796.1101000	2.3073984
8696.4772000	-16.1562740
8606.1993000	-0.0882492
8511.1089000	5.5817474
8398.0560000	-0.6579359
8262.0218000	3.6755690
8184.5458000	16.4926700
8064.2447000	1.1588906
7976.0049000	15.9432630
7856.6339000	-2.1356910
7779.7622000	11.7723140
7662.0597000	19.2509550
7557.8491000	-9.6445155
7459.2775000	1.3187108
7372.8787000	-0.3771289
7287.5180000	-9.0723158
7184.4105000	-15.9099300
7116.3350000	7.6401688
7009.9738000	0.7852409
6898.1541000	12.9266390
6834.6186000	-8.0176770
6747.0020000	-5.8972046
6661.7537000	-14.0514530
6565.2173000	8.8320508
6494.8444000	13.2656260
6387.3800000	-16.9869600
6310.8237000	6.6885370
6208.9332000	-9.3207626
6156.7088000	-4.1520729
6049.6851000	10.1225180
5981.3193000	20.3110480
5878.2330000	-19.3523730
5831.0959000	-14.9846210
5726.6968000	-15.7929060
5649.1545000	1.5779185
5570.6306000	8.4946333
5514.6434000	-4.8785144
5444.5416000	-19.2660850
5361.1271000	3.9297785
5267.2668000	13.2343040
5216.8785000	-9.1281172
5134.3970000	18.3855800
5067.9013000	13.6920040
5004.4399000	-14.5385150
4927.3754000	2.7653968
4846.4586000	1.4821378
4773.1686000	16.6022250
4703.9137000	-6.7898752
4672.6937000	20.5825690
4591.4324000	17.3771140
4512.1005000	2.4668901
4464.9340000	-14.7785180
4410.6033000	-11.7029120
4339.6550000	-11.6165080
4270.6531000	12.7276710
4221.1463000	-13.3325920
4141.7407000	-0.9829607
4077.3657000	8.3345438
4030.1621000	2.5549358
3957.8806000	-9.3738531
3929.5348000	-7.0791543
3836.9324000	7.4301198
3792.9204000	-10.7170690
3723.8842000	-7.5324125
3667.4013000	-15.9843090
3637.2233000	-18.2844980
3580.0455000	-5.7674202
3507.6012000	-2.1716888
3460.4141000	21.0026420
3416.0009000	-17.6974470
3360.0521000	-12.2375540
3313.6759000	-5.6343557
3280.3115000	-7.6069852
3218.6871000	-20.0955230
3184.2414000	12.9471550
3123.8143000	20.0428010
3077.4093000	6.2635100
3005.5204000	20.7171680
2977.9638000	6.6570128
2918.6798000	13.3521400
2867.9582000	15.4358670
2836.5490000	14.0517940
2795.4275000	-11.7848210
2738.2082000	8.6547056
2714.4374000	-12.6891930
2678.1300000	17.8016860
2629.3280000	8.2349880
2599.5522000	15.0419580
2557.5345000	3.8017587
2515.8831000	6.4820549
2457.6432000	-13.7649440
2440.9838000	-5.9180890
2388.2718000	9.6104199
2339.0161000	7.4765646
2323.5017000	-14.0006560
2271.1863000	2.6034378
2249.8306000	1.5799015
2217.0001000	17.8149220
2181.7881000	9.1032870
2144.3552000	-15.8457190
2080.9637000	11.1486960
2086.2013000	14.5087290
2022.5163000	3.8582341
2008.9977000	5.5656585
1962.5148000	-13.8020200
1950.8397000	-6.7670899
1908.6335000	14.5799960
1854.5792000	-0.7055875
1850.7508000	5.0726749
1812.0126000	16.7212280
1791.8320000	-3.8164725
1744.0660000	3.8461005
1707.8991000	15.1386060
1677.8285000	-9.8720769
1685.8614000	-7.2757838
1640.4006000	4.2747959
1627.2604000	-2.3349411
1586.2436000	7.0145074
1541.5242000	-17.6112220
1521.7708000	11.7767940
1514.0418000	-5.6070683
1485.0809000	19.1454150
1434.4030000	17.7049930
1434.7191000	19.5428580
1423.3396000	-15.5787460
1381.7127000	5.3875591
1367.3781000	-7.5965882
1347.6982000	2.1710028
1311.8104000	20.3844160
1274.2959000	-9.8091687
1245.7095000	-14.7589910
1244.4599000	-3.8710689
1228.9420000	18.6267070
1214.8500000	-12.5744890
1176.5887000	10.6177300
1152.3261000	7.0738401
1154.9343000	15.4513600
1107.0107000	11.7216320
1098.4755000	8.3851540
1076.5232000	-12.2851370
