jMRUI Data Textfile

Filename: dataset16_nWS.txt

PointsInDataset: 2048      
DatasetsInFile: 1         
SamplingInterval: 2.5E-1    
ZeroOrderPhase: 0E0       
BeginTime: 0E0       
TransmitterFrequency: 1.2322E8  
MagneticField: 2.9E0     
TypeOfNucleus: 0E0       
NameOfPatient: dataset16_nWS
DateOfExperiment: 
Spectrometer: 
AdditionalInfo: dataset16_nWS
SignalNames: dataset16_nWS.txt;


Signal and FFT
sig(real)	sig(imag)	fft(real)	fft(imag)
Signal 1 out of 1 in file
49878.9890000	-25.0125710
49689.1260000	52.0127660
49483.3980000	-33.7046210
49259.4060000	-33.5902950
49038.6900000	36.5368350
48749.1630000	37.8829870
48535.5070000	-41.2859910
48327.3080000	9.5211095
48141.9310000	25.3104000
47920.9770000	61.1558560
47638.5620000	-36.5130000
47346.6920000	-17.5891700
47198.7630000	-44.0814670
46956.1990000	-41.0157560
46689.7880000	-10.9078770
46523.0440000	-4.4747552
46354.4950000	-54.8866090
46058.7050000	44.1704750
45809.2290000	-32.6697890
45703.8450000	58.5489900
45426.0350000	55.1207160
45249.9890000	3.9573053
45076.0470000	-38.7497190
44841.6370000	-54.2019050
44597.3160000	31.1433400
44405.6500000	-20.0270020
44226.7740000	-40.4797370
43979.6320000	45.5387690
43778.4380000	-64.0908460
43543.0750000	-54.1315070
43410.2330000	-38.5415780
43120.7240000	59.4489100
42957.5320000	-61.3870150
42677.6980000	14.0527710
42496.0880000	33.0104250
42307.5230000	57.8368790
42095.1090000	-24.4113490
41914.1730000	-52.3841070
41788.9010000	26.0157620
41554.3710000	-40.2601480
41306.6700000	-14.7955700
41104.1510000	1.1779167
40963.1630000	-39.9325400
40806.3770000	10.7671640
40639.4990000	60.9008650
40358.6330000	19.3953640
40229.7780000	36.5869310
39962.3820000	-41.0088360
39797.9960000	26.6047860
39629.4490000	20.9468620
39407.5050000	-9.2927569
39309.1740000	38.9437280
39024.5130000	-61.7339370
38868.2190000	-22.0911170
38706.8120000	-55.5298100
38492.5670000	2.8792851
38316.8250000	-46.4541840
38154.5120000	6.1712466
38002.7670000	56.4264700
37782.8900000	-61.5587230
37678.0610000	37.5674790
37430.0620000	-12.1879610
37319.6860000	-46.9192100
37076.1380000	29.9683360
36977.0790000	-42.7945900
36743.4010000	-36.1766560
36551.0250000	41.0949190
36437.5240000	-53.8612890
36248.8840000	-12.3529620
36096.4780000	-35.7936290
35964.4380000	-6.5833192
35778.2340000	16.6741100
35619.3960000	-15.0809140
35449.0850000	-22.6949900
35200.7740000	-19.6012550
35034.5800000	-35.9294180
34890.0850000	62.3952160
34758.1980000	-30.3476440
34613.4580000	36.0192660
34458.5980000	56.1160660
34304.1480000	21.0602890
34094.8560000	-61.2372900
33874.0180000	-28.8278340
33708.4810000	18.6810820
33635.1410000	59.9609040
33460.5250000	-8.5561876
33268.8470000	21.4077830
33115.8330000	-12.3068370
33018.5310000	3.0897207
32792.4770000	-33.3293980
32618.1250000	38.0164070
32460.9150000	54.1807080
32331.3550000	45.5239390
32205.7120000	-35.8418380
32056.5880000	47.5265660
31946.9770000	22.0706680
31738.1440000	31.2284630
31614.5700000	-47.4694410
31506.7740000	-6.0693181
31334.8030000	-48.1043800
31160.8030000	60.0285500
31031.7950000	43.2399270
30931.5080000	21.3574130
30755.8020000	-7.8043588
30589.1600000	54.4537770
30457.3200000	-51.2111460
30261.8700000	-50.1296240
30145.5240000	27.3073780
30068.2760000	62.1666250
29894.5470000	-1.4729247
29700.2910000	-8.4195842
29563.4290000	-59.2483830
29444.8470000	-22.1815930
29306.5970000	-44.5271910
29192.5200000	55.9962820
29021.4980000	27.9928900
28947.6380000	3.9960880
28789.1610000	5.5943645
28634.0430000	13.5279430
28531.1490000	47.6666960
28368.8200000	-31.6840210
28168.7050000	-11.5215020
28085.0940000	1.8393006
27989.0060000	-6.6617448
27834.8940000	62.2705520
27753.8580000	35.4776160
27522.9540000	-40.0377620
27502.5390000	60.9526530
27312.6380000	-25.9118850
27156.3290000	14.5792630
27060.5490000	-47.9525900
26917.2060000	-44.8845730
26758.9610000	-26.4079750
26732.2560000	-47.4810870
26559.9650000	37.8431050
26479.0630000	4.8445668
26259.9350000	14.5192410
26129.7120000	4.5073275
26110.0030000	-6.6005649
25889.7740000	-14.8804230
25851.7020000	-61.5603030
25712.7330000	-59.0752850
25626.2080000	31.4851840
25452.5470000	10.7474930
25372.2610000	-14.8585380
25166.4490000	10.4687320
25152.8890000	-0.6267246
25019.0410000	38.8135030
24843.9480000	-60.3543220
24784.0590000	28.7552240
24562.5150000	46.7454440
24470.3120000	-55.8794040
24345.5220000	52.7296970
24323.5180000	-27.7268350
24119.7210000	-44.1692780
24034.6520000	1.0588068
23970.1660000	4.6742831
23815.8110000	6.1371447
23692.5990000	15.3058860
23635.7240000	-36.2577300
23469.2470000	-3.4847852
23386.7580000	13.4038290
23321.9600000	-1.2030632
23101.8440000	56.8674430
23026.9310000	-49.7842390
22982.0540000	-62.2360380
22881.6370000	42.9424110
22767.0490000	20.6145520
22631.9450000	-7.3822323
22513.6250000	-52.3669500
22373.9490000	-42.2111800
22247.0940000	-45.5902210
22194.9360000	-7.1440945
22047.6980000	-44.0747020
22034.5710000	-60.0021100
21840.4100000	39.7879970
21767.0200000	-27.8056930
21627.7580000	41.6962840
21517.9530000	-24.3004620
21534.4230000	22.3278010
21412.0020000	-59.3565830
21317.4190000	-26.7394860
21242.3700000	28.3805750
21021.9150000	-55.6489750
21038.6360000	-35.9999560
20910.2090000	-1.0869920
20732.9440000	59.0194690
20699.8880000	25.2714940
20575.0490000	55.2837940
20438.1290000	43.8793680
20357.2270000	-19.0786080
20287.9160000	-22.6615210
20259.3830000	55.9886160
20066.3820000	63.7884800
20008.1520000	-48.9478270
19895.2290000	-16.4384790
19840.5740000	36.9476460
19696.2450000	51.2101040
19616.2560000	-27.3010940
19498.6290000	6.7991505
19512.8640000	17.7765640
19382.0390000	-50.7451130
19318.5680000	17.0886850
19184.0140000	3.2018332
19151.7380000	-51.7807600
18988.8330000	-35.4189920
18929.7530000	55.4550470
18770.6110000	63.9264750
18776.1420000	31.2847090
18608.4820000	21.3893630
18553.8390000	14.0265390
18432.8310000	-1.7125825
18341.1970000	-18.9290960
18239.2010000	-14.9101820
18156.0750000	17.4873560
18152.3690000	26.4056110
18003.6550000	39.1204320
17945.4470000	47.5456800
17809.9250000	49.4356060
17799.4580000	30.7508280
17727.0320000	-53.3542550
17667.3450000	29.4551440
17549.9540000	-12.8154660
17478.4960000	61.8487050
17388.8560000	-43.0081240
17318.1100000	-43.2625660
17185.6150000	-8.9953566
17070.3000000	-43.5219280
16987.2410000	-36.4819010
16926.3240000	-50.3481110
16930.6610000	18.1470930
16797.5730000	-8.0915268
16783.4450000	54.4840550
16625.4050000	31.5324510
16567.7730000	-61.0602960
16507.5690000	41.9174740
16394.4730000	-22.0090370
16303.0030000	42.3610810
16278.7620000	26.0725770
16219.1160000	4.2792792
16145.7270000	-19.6768270
15998.0880000	-24.2692010
15975.6760000	-46.7617450
15947.0140000	35.3108890
15760.4540000	56.4304710
15766.4260000	36.2217660
15694.0630000	13.6838370
15625.0980000	44.3811870
15546.9170000	37.7695980
15441.6060000	40.2052140
15341.2870000	9.1100564
15354.0510000	11.3955080
15275.0940000	25.4256890
15195.6680000	-13.6251890
15027.7420000	-30.8677510
15014.2970000	47.3111930
14908.1150000	-55.7705330
14928.1330000	16.8858880
14764.1130000	36.8074590
14785.1960000	-54.1891860
14669.6210000	4.6628979
14655.1640000	-34.5721230
14543.2150000	-60.9357100
14505.4060000	20.4432530
14401.5870000	23.9890070
14290.9550000	-5.2952125
14272.6520000	-45.4210170
14146.3870000	50.9846600
14064.7660000	-21.7266430
14039.7160000	-23.4042540
14042.0670000	8.4054525
13978.7610000	-45.3362980
13912.2540000	52.4186430
13794.9530000	32.3116920
13717.2830000	-47.3581620
13657.3680000	31.2914290
13564.0480000	34.9283160
13584.6190000	-7.9663953
13415.5670000	18.9365310
13380.5340000	-39.8002660
13405.4520000	53.8463940
13313.2770000	-24.9908440
13202.7890000	38.2444240
13098.5930000	-25.4610100
13092.2390000	-3.6742696
13040.3670000	-48.5921240
12998.7400000	6.2930747
12948.3690000	15.7635900
12838.3450000	-63.6649710
12846.7300000	-33.6727400
12712.7220000	-53.5085940
12718.9470000	60.9876540
12605.1960000	-5.4462900
12513.4180000	-40.6149890
12459.0460000	-56.2988850
12426.9930000	9.8222725
12415.9380000	63.8399070
12260.6980000	-21.4016820
12212.4800000	-58.6415930
12156.9660000	-6.1298798
12137.3480000	15.0344060
12080.5640000	39.3951080
11969.8090000	22.2416290
11953.7370000	-62.5342480
11858.5780000	-42.5399510
11868.4950000	54.5384620
11759.5130000	10.6431940
11778.9920000	9.1240001
11706.6420000	-39.5873920
11615.9420000	51.4936990
11644.2980000	-39.5529530
11509.8850000	-7.3332971
11522.9860000	25.0404420
11477.7110000	-16.2841790
11330.2090000	-24.0226650
11345.2330000	-44.3019920
11236.7180000	-15.9583410
11247.2550000	21.2798940
11216.3070000	-34.5803130
11149.2880000	32.5248840
11060.0180000	-5.4284275
11031.4380000	34.7264810
11008.4350000	19.7640580
10879.2810000	64.0940070
10814.9030000	19.2327680
10805.7320000	-20.3374340
10685.5290000	-26.7210330
10757.7490000	9.7792328
10628.2790000	-31.4327800
10629.9500000	-43.9672920
10575.3730000	44.1305950
10431.4910000	-6.8385430
10382.7020000	-35.0242040
10426.5490000	-20.7833420
10349.8940000	24.7856710
10354.7550000	48.7687800
10304.6410000	-25.8152560
10222.7690000	-60.9736360
10130.2670000	-4.9594466
10135.9760000	37.7173370
10111.3210000	-9.0099346
10003.7250000	24.5013290
9936.1523000	-56.4926750
9866.9565000	-34.7928560
9836.1796000	-60.1768540
9882.3304000	45.8546080
9772.7036000	-43.2629590
9739.1389000	60.4211330
9663.9969000	14.7144280
9628.2570000	40.2956320
9537.2723000	-2.9155103
9554.3856000	11.6083990
9511.5360000	26.0785670
9522.9867000	20.5304110
9399.0209000	14.4047910
9335.4274000	60.7544650
9289.2182000	-3.9137219
9319.2369000	-52.5249730
9176.9449000	13.7955300
9139.6899000	-48.7231040
9160.7884000	47.3555180
9053.6776000	36.6959710
9063.7795000	-30.9217900
8971.0171000	37.4910240
8921.7095000	22.6122530
8979.4572000	-40.4320850
8944.8271000	-5.2465446
8914.7663000	36.1354690
8813.4603000	5.0454977
8746.1124000	19.5232530
8682.1220000	39.1200290
8667.2880000	26.6265140
8612.4277000	-44.2775460
8649.0445000	-50.1407150
8608.8108000	51.0767540
8482.0092000	8.6560127
8547.6362000	8.7688691
