jMRUI Data Textfile

Filename: dataset28_WS.txt

PointsInDataset: 2048      
DatasetsInFile: 1         
SamplingInterval: 2.5E-1    
ZeroOrderPhase: 0E0       
BeginTime: 0E0       
TransmitterFrequency: 1.2322E8  
MagneticField: 2.9E0     
TypeOfNucleus: 0E0       
NameOfPatient: dataset28_WS
DateOfExperiment: 
Spectrometer: 
AdditionalInfo: dataset28_WS
SignalNames: dataset28_WS.txt;


Signal and FFT
sig(real)	sig(imag)	fft(real)	fft(imag)
Signal 1 out of 1 in file
3434.5287000	-1624.0942000
5752.2158000	-3598.3649000
2780.6411000	-5897.9544000
-868.7615800	-6100.1380000
-3928.3244000	-4269.7240000
-5339.3868000	-1183.0079000
-4793.6083000	2006.9388000
-2658.2872000	4124.5964000
102.6788900	4592.7194000
2414.5413000	3424.4032000
3481.9789000	1305.0945000
3096.1082000	-835.8801300
1635.7758000	-2182.0292000
-151.7465600	-2313.9839000
-1474.9419000	-1405.3178000
-1855.6202000	-22.0765170
-1288.6716000	1120.1265000
-200.9853900	1525.5657000
828.6833100	1087.1788000
1270.9886000	67.1320320
917.8784200	-960.5782000
-58.7456590	-1515.8694000
-1164.2326000	-1333.7470000
-1897.9564000	-463.7016200
-1932.8793000	702.0419900
-1236.8153000	1684.5713000
-58.5617910	2046.0768000
1108.0754000	1657.5519000
1854.7686000	663.3073500
1918.7282000	-571.0319900
1284.8054000	-1595.3623000
228.8939900	-2080.8317000
-874.0117900	-1897.0619000
-1675.0291000	-1149.5030000
-1915.7845000	-110.3106900
-1560.7285000	851.1863900
-784.9986600	1457.8054000
177.5907800	1578.9977000
1018.1759000	1181.5724000
1502.4824000	440.9701300
1523.8449000	-398.5161000
1131.3695000	-1096.3599000
413.8622300	-1465.5373000
-357.8200000	-1384.3790000
-949.9613100	-922.0166700
-1223.7669000	-199.4005400
-1058.7399000	545.1664600
-513.3906600	1073.9815000
215.1101200	1202.1389000
881.7527800	920.0373000
1246.1487000	292.0000800
1185.9229000	-416.6509700
693.3929100	-953.5853200
-3.7318912	-1109.7891000
-680.8545500	-801.4255900
-1037.5010000	-163.3495700
-937.6371400	547.8215200
-444.2321100	1031.7267000
248.2137200	1128.1914000
844.4278900	761.3116500
1059.3436000	101.2789400
825.8237100	-563.7444000
230.7671500	-936.6736300
-479.1828800	-866.8321800
-984.9883500	-368.9731300
-1067.3805000	335.9762600
-678.2015000	932.3507300
-11.4013260	1156.5787000
671.4907200	890.7606200
1041.7743000	261.1675000
935.2109300	-485.2636700
393.7894900	-988.8435700
-341.0075700	-1067.9178000
-942.7228700	-661.7889000
-1165.3219000	34.1034230
-893.5271100	696.2226900
-260.2491100	1059.0385000
465.0525900	931.8641400
981.6753800	387.9727800
1030.1105000	-364.0638300
590.8750200	-987.2719800
-132.8040800	-1218.4574000
-856.1969100	-916.8387300
-1242.7429000	-260.4992000
-1124.1617000	526.8645000
-575.3374000	1106.8294000
233.4779800	1225.5422000
939.7617400	862.6238100
1305.4684000	159.3251600
1185.5046000	-620.5502900
639.2523400	-1169.6498000
-98.4610700	-1266.6153000
-764.0843100	-939.8045100
-1068.7224000	-309.6075900
-980.1635400	349.5601000
-551.0531900	816.3200800
49.6303180	936.9959800
548.5668600	708.7989900
806.4015200	265.7363600
739.1852800	-187.0356100
454.9978000	-503.0291200
81.2743510	-549.6414500
-228.5956600	-391.6138200
-345.4400300	-124.2159900
-275.5771400	134.0620100
-91.5767590	273.3714100
101.3314200	242.2526000
200.2217000	94.2592230
178.4885200	-70.8112590
18.9800840	-187.3874600
-153.4817800	-165.5284600
-275.0164900	-10.0082200
-305.3621600	184.8703900
-188.1662200	351.7134300
25.2110840	416.2729600
236.9995500	337.5166200
385.3098000	157.2930700
399.8684900	-76.7310780
292.7504600	-295.4906500
73.2095430	-432.2737900
-174.6958400	-403.7161700
-377.3628100	-270.5512700
-474.9448100	-67.4884770
-434.2348600	162.5577100
-274.7202100	339.8887600
-56.9899760	408.0567900
160.6778500	352.9825500
295.5543300	177.8572700
355.4460300	-15.5945410
286.3927400	-216.2901700
127.4394400	-331.1370600
-65.8190320	-352.6467000
-219.6723500	-244.4039000
-296.2082300	-101.2850600
-288.2191300	89.6716970
-169.5863600	206.5215300
4.6723171	256.9412100
145.8216300	189.8556200
239.1626800	76.5190460
258.4562600	-60.5440070
181.7046100	-187.0051300
51.2329750	-223.9650900
-66.1815010	-194.2214700
-139.8065200	-114.4017800
-132.5294800	0.8739161
-74.4477260	91.2177400
14.8615450	104.9325200
86.4666650	65.3822200
106.9299600	4.0713398
81.1167900	-56.8161320
16.7951920	-88.1810230
-60.5231090	-62.8691540
-95.8657470	8.4321164
-87.5006600	89.7947440
-31.2885340	138.4219600
54.9236190	138.9560300
141.4608500	88.0766220
157.3893700	3.1150236
120.3638800	-83.4982120
48.0877480	-150.0069000
-59.3321830	-136.5603600
-146.8599600	-68.6516590
-162.9043200	24.9513940
-138.6350400	119.0185300
-54.0249520	168.2877600
39.2187640	160.2546700
111.1935200	94.8793080
135.2907100	14.3695310
99.1589580	-73.9618060
26.4204020	-118.6859000
-63.1155370	-127.6310300
-117.1055500	-79.7582020
-147.4128100	-1.0601393
-126.8332600	74.2637920
-62.7525360	127.6964000
15.1192310	126.2397700
79.0731860	89.1752450
106.8062600	17.3109730
88.0471600	-39.2526870
41.7692150	-74.8919140
4.0052323	-75.5979330
-35.3864450	-55.5808950
-44.3497400	-25.5606010
-44.5753660	-8.1337254
-18.3929990	17.6682110
21.3932980	22.7132060
32.6354020	-0.8074477
41.1902380	-26.0720000
19.5205330	-52.8852330
-4.6353048	-61.5743030
-28.5898240	-51.5977360
-44.6532440	-31.4431440
-53.9676610	1.1623591
-28.0977020	22.5709030
-6.7207130	28.2046840
5.9848237	35.1217670
21.8176700	20.6657070
28.3447460	19.3489470
19.9005550	0.0422983
4.9391556	-1.8082952
-5.2914696	7.6851433
-9.3313469	12.7231600
11.8205400	20.7690180
11.5535440	17.8081390
20.4796810	25.3439730
29.9987650	8.6528433
19.6557020	-8.7950277
20.2097590	-19.5395910
4.8698149	-19.1288870
-17.7164630	-34.9347540
-32.3915970	-8.7172686
-44.1360670	0.1541059
-37.0663550	14.1785600
-34.6663380	23.9265850
-13.4293800	37.1592730
4.6957762	42.8575120
12.5939620	30.6290200
13.2741890	17.7779220
22.1793190	-6.6308167
12.6902530	-16.3388680
-4.2907963	-14.1965770
-15.3394770	-7.4989043
-6.1888697	1.9543623
-20.0353760	7.1626196
-14.8072310	3.4343432
-3.7603646	6.8783606
4.0988702	10.1673450
24.0064800	4.4042695
15.5682110	-17.7127710
9.3059867	-19.6126950
4.4349597	-24.2046840
-4.6520383	-30.1294130
-15.4840430	-17.6947150
-24.5497760	-3.8378866
-13.2529870	-6.2394084
-12.9273830	2.6401811
-8.5905573	6.3397214
-3.0149170	-0.5573614
5.7464195	5.7981426
2.2435267	-12.9968250
8.1394936	-14.9876730
-6.8432106	-3.8253989
-8.8149952	-2.4305580
-10.3125050	13.2648770
-3.4622968	11.4932700
0.4800339	13.2113130
12.6186080	4.3157107
8.5980392	2.7885899
10.4075660	-9.1496048
1.1426601	-8.9844413
-6.3785438	-1.4001878
-11.5332800	-0.2041084
-7.7366633	-2.9118659
-15.2834430	12.5064000
-12.4708100	9.7434373
-3.4422632	15.5072170
0.3216386	23.2450400
10.2190290	19.1862230
7.2325944	0.8643605
17.2376260	8.3365896
-4.1973331	0.5930447
-8.3243801	-2.6435290
-6.3850814	5.2146998
-10.0549430	-1.1015667
-14.8500580	10.4377190
-7.4028908	17.4071330
8.4232251	8.2954174
21.1778260	20.1639520
16.6771100	13.9230250
17.0627660	-12.6820860
10.9154120	-16.5367010
6.6632462	-11.8002690
-8.4283131	-8.3934168
1.6667857	-16.2641400
-3.8320739	-0.6268750
-8.9962625	-0.7059124
0.2773758	2.6883365
-7.5274163	1.4541442
-6.2577924	-9.3609043
-0.1148237	-5.1879516
8.5272872	-4.3350876
-7.9682562	-8.5166231
-3.1545447	-17.1942530
-13.0251000	-12.2402400
-8.0237994	5.7518386
-2.7691876	6.2161881
2.1568249	4.2777486
-7.6616184	-0.9451227
-0.7772602	-0.3370475
-1.4721036	-3.0678072
-0.5594189	3.1724546
1.1476434	6.3551001
5.5554493	0.5147327
4.2879729	12.8229150
2.6360545	20.8590910
14.9212260	7.1153789
23.8719160	-3.8598461
13.7619000	-5.7279695
20.1474400	-4.5135221
-3.7437656	-12.4510330
-0.3160644	-23.9020730
-19.7579460	-5.8263314
-16.7454740	-6.8155778
-21.6573860	-6.7820106
-8.2100980	0.9131472
-9.5154686	4.1207602
5.6391827	17.0424620
2.3891307	8.5796585
9.4311982	-4.3795664
-7.1472309	-6.7959566
-8.9531863	2.0103119
-11.0092960	8.0531643
-3.7712095	0.5707691
2.6213819	21.5738060
3.8220535	20.2592640
6.6081505	8.5366658
19.2652750	10.6075010
16.7343640	0.9239274
5.5572516	-1.4556931
14.7764360	1.8277987
3.8770898	-10.3303970
-0.9372177	-11.4328720
-8.7018142	-5.5883277
1.7149919	-8.5151520
4.4503073	-0.2981437
1.8570999	-2.1428831
-3.6043768	-13.9566530
3.0961513	-5.9005334
-13.1764210	-17.7518880
-8.1366023	-11.6124640
-4.4684183	3.9679622
-8.3267914	9.9713677
-15.5155500	12.2770310
-7.2318630	11.8434260
-5.9793364	9.2189708
0.4401415	14.7473470
2.1323939	12.3505550
4.1715448	0.4731781
14.4172910	5.5198683
7.0569000	-8.9767093
-7.3573439	2.3012359
-6.3849213	-7.6399147
9.9429201	2.7814215
5.0035381	-12.5431130
11.4312230	-16.3620650
4.6175947	-10.0046650
-12.8409830	-10.0810820
-0.9249478	-13.1135630
-13.4867650	-3.9222810
-16.5658590	5.1306723
-11.2320060	2.6866668
-16.8321810	24.5322450
0.8676800	12.7034220
16.4724830	14.7629380
16.9683620	13.0313400
10.6574130	-2.4280207
24.0247750	-12.7244620
0.1674638	-14.2464800
-5.4230170	-18.8802890
-12.7665370	-16.4081050
3.0850790	-5.2511942
-2.4011331	-2.7100435
0.9432673	-2.1344680
5.0511261	15.4721340
11.5435010	5.9496814
13.1292920	-16.0937410
14.5868280	-16.1502460
0.3914500	-23.6624970
-8.5106513	-26.4986440
-13.6557230	-11.0857380
-19.0677800	-5.9803774
-8.3933164	-2.6074438
-18.9902050	4.3905879
-5.2023543	11.1362530
-6.9954277	7.6065479
1.5032028	7.3515520
-8.0678416	12.1856980
7.5973460	15.0389000
6.4244191	11.2984480
3.9776173	19.2790330
-5.1423263	19.4533620
17.3212590	21.5082260
23.9550560	8.7949650
16.6298340	7.5037805
19.4126520	-11.9604570
10.5638960	-15.2041620
1.3208632	-23.5571320
-4.0553875	-23.6387650
-19.6797340	-11.6586260
-19.0142750	-8.3453803
-15.0379830	8.7973856
-5.5531861	14.4458900
-6.5251967	18.2338340
6.6039810	3.6229334
9.6949293	-8.8875931
11.7036940	-15.0054430
2.0332304	-8.2355166
-1.3015417	-3.4961834
1.2076300	2.3765283
-16.2219980	6.5659950
-2.9692096	16.3321010
4.7279999	5.8314756
14.0971870	14.3911880
9.7782552	4.4839382
20.1176160	-16.6728400
8.5488398	-18.4653160
6.6144744	-15.5765600
-12.0670520	-18.4578530
