jMRUI Data Textfile

Filename: dataset28_nWS.txt

PointsInDataset: 2048      
DatasetsInFile: 1         
SamplingInterval: 2.5E-1    
ZeroOrderPhase: 0E0       
BeginTime: 0E0       
TransmitterFrequency: 1.2322E8  
MagneticField: 2.9E0     
TypeOfNucleus: 0E0       
NameOfPatient: dataset28_nWS
DateOfExperiment: 
Spectrometer: 
AdditionalInfo: dataset28_nWS
SignalNames: dataset28_nWS.txt;


Signal and FFT
sig(real)	sig(imag)	fft(real)	fft(imag)
Signal 1 out of 1 in file
52178.8860000	-1635.0454000
54226.4710000	-3632.9713000
51103.0440000	-5878.7258000
47156.1690000	-6100.6055000
43907.2340000	-4314.2970000
42218.9510000	-1185.4266000
42608.8890000	1968.3139000
44545.8140000	4105.7346000
47017.0300000	4585.4617000
49173.6060000	3402.3025000
49999.6670000	1274.9014000
49404.8660000	-798.3191100
47700.9260000	-2202.7478000
45705.5420000	-2338.1381000
44173.4190000	-1392.7091000
43586.7370000	-32.2840050
43911.6440000	1130.1782000
44829.2530000	1540.6696000
45609.8450000	1095.5342000
45813.9870000	93.0043190
45276.1390000	-1004.7173000
44087.6320000	-1551.6506000
42788.6060000	-1293.8457000
41871.2300000	-459.5110000
41561.7740000	730.8056100
42081.9630000	1686.9818000
43035.8630000	2068.3686000
44055.4850000	1624.4426000
44585.0040000	630.6421600
44415.3190000	-581.1033600
43595.8130000	-1644.0875000
42369.6530000	-2101.9720000
41046.8610000	-1870.2158000
40082.0300000	-1159.0255000
39634.0790000	-137.1602900
39792.5680000	821.3328100
40351.5340000	1501.5245000
41124.5260000	1565.6594000
41726.3970000	1173.9431000
42104.5210000	485.3651500
41935.6360000	-364.5316600
41264.1380000	-1116.3228000
40427.6880000	-1470.0042000
39451.5490000	-1361.7633000
38636.7190000	-915.5232400
38230.4680000	-196.1340100
38190.9790000	515.6501900
38531.4350000	1035.5189000
39075.4780000	1236.1318000
39573.9800000	908.5307900
39764.1310000	299.4635400
39513.7130000	-431.0433100
38887.0230000	-970.7472800
37989.7740000	-1132.4077000
37089.6890000	-831.3673000
36554.2900000	-207.9095700
36498.6830000	526.5326900
36839.7820000	1052.2791000
37327.1590000	1159.7486000
37775.4730000	774.7678700
37824.0950000	116.2182800
37377.9580000	-567.4398200
36634.5330000	-899.3027500
35778.2810000	-849.4764200
35032.8210000	-402.0652900
34799.2270000	305.8782700
35032.2710000	917.0118300
35578.8510000	1138.4065000
36081.4270000	887.1369700
36241.3470000	242.8452500
35964.0430000	-456.0659900
35276.6410000	-1008.2334000
34357.8770000	-1024.5718000
33620.2460000	-669.0482000
33202.2720000	55.4010270
33373.2760000	739.8342100
33842.2230000	1077.9016000
34373.7880000	938.7133200
34747.9370000	360.4523900
34593.8250000	-332.7591200
34036.7000000	-1009.5082000
33116.8930000	-1211.5445000
32250.7840000	-915.1210300
31764.9850000	-223.7841200
31681.5560000	565.7736100
32115.2560000	1117.1212000
32752.3580000	1218.9767000
33310.5590000	842.0503800
33488.3770000	147.5737200
33186.0550000	-621.6332900
32556.8600000	-1180.8678000
31638.5870000	-1277.0364000
30850.5590000	-904.6026500
30411.7920000	-319.5624900
30327.8870000	364.8515000
30629.2320000	823.2203200
31059.4540000	982.5098500
31378.6240000	669.9036000
31538.0710000	230.0260600
31305.0180000	-188.2278300
30912.7850000	-454.7126800
30350.8670000	-522.8088400
29949.6050000	-425.5713100
29627.0460000	-103.7806500
29549.5150000	170.7906600
29654.1520000	244.3389700
29698.6980000	258.1331300
29663.1560000	52.8580300
29496.4290000	-84.6710370
29147.1170000	-183.4064500
28862.7210000	-172.9578400
28615.6680000	-30.1273710
28476.6460000	170.4578900
28440.1470000	333.3710000
28509.2350000	377.3003400
28589.0160000	334.5133000
28629.8220000	136.6327300
28470.1100000	-123.9895200
28260.7900000	-278.3985800
27892.4840000	-435.6101700
27545.0740000	-380.8570400
27190.8420000	-309.8221500
26922.1350000	-63.9205660
26856.6370000	173.4426200
26864.7280000	321.2074900
26945.3660000	423.8505500
27050.2860000	366.0080400
27102.0370000	206.7767300
26993.7460000	-25.1381130
26856.2930000	-241.4471200
26537.1410000	-322.8840900
26197.8140000	-330.0071900
25945.5670000	-247.3371900
25720.9290000	-122.7017900
25675.1760000	106.6825000
25652.9500000	206.9461900
25711.7020000	243.5134900
25725.9010000	183.5979700
25715.5430000	102.6920200
25602.2150000	-27.0164200
25380.4560000	-138.5680300
25171.7230000	-216.6680900
24918.6380000	-192.9369600
24679.5370000	-97.8246920
24567.5140000	-5.1974249
24556.3210000	55.2902770
24476.6390000	96.2172310
24443.0420000	110.9282100
24411.1680000	18.5832230
24193.1220000	-55.3849320
24012.4670000	-106.7726100
23830.8620000	-96.7777880
23746.9340000	-35.2867600
23588.9180000	69.8208190
23549.0650000	106.4977000
23539.2950000	136.1319900
23539.2610000	62.1199770
23441.2220000	40.5118180
23288.8980000	-76.5885100
23104.8120000	-112.6883400
22905.9070000	-98.0221550
22708.9180000	-119.0001600
22540.3940000	-17.5009560
22460.9120000	103.4294800
22437.8780000	156.7742300
22400.2030000	117.7018000
22427.1240000	90.5466260
22359.1560000	37.5548060
22146.9620000	-56.5972020
22033.5050000	-150.5515600
21835.2670000	-104.3178300
21692.9980000	-38.1661490
21524.9780000	-9.1102446
21452.9330000	115.6084000
21419.1490000	125.1818700
21397.7980000	78.4729180
21307.5750000	72.1509500
21306.1270000	-10.0025070
21135.7910000	-60.6137330
21009.4380000	-50.7332880
20907.4940000	-71.7037870
20717.6440000	-90.9307320
20667.1170000	-22.9397580
20550.8250000	21.4204340
20486.5350000	40.4154610
20407.0230000	46.7065260
20297.1370000	-20.8526620
20249.1510000	-48.3045790
20094.0270000	-51.5230760
20028.9220000	-100.2706600
19857.5560000	-36.5393610
19812.7770000	-11.8524330
19667.1900000	0.2627848
19629.4860000	-19.0888650
19507.6540000	60.5888430
19426.8420000	27.9282410
19388.2220000	-3.3374260
19305.2600000	39.3852290
19231.2740000	27.9547510
19065.6540000	36.6455960
18958.0370000	18.3170000
18875.0730000	-34.0478000
18843.3210000	-14.3724900
18710.6060000	2.3751128
18661.2030000	16.9401300
18579.1440000	38.2746180
18507.1060000	13.2188590
18427.5000000	-24.8277850
18330.7720000	-37.5364710
18197.2040000	-60.5539360
18071.9530000	-17.1480800
18015.2390000	34.5230710
17923.5470000	-15.5425360
17809.1820000	44.8141570
17744.0840000	28.9262880
17711.9910000	68.6794420
17609.2850000	57.7688830
17577.0330000	-5.8137024
17464.6490000	29.3491940
17416.9360000	-22.8408400
17311.8340000	1.4726786
17228.0630000	2.9440221
17132.3330000	-25.5553370
17005.0240000	-25.2467920
16990.9940000	50.1471560
16905.9670000	32.8609010
16837.2610000	7.3015865
16775.9070000	-16.2485550
16649.7840000	-13.6476200
16543.0080000	12.7674320
16497.2510000	-5.6044975
16431.5930000	-27.8379690
16320.3110000	-51.5458270
16270.2530000	30.3040740
16139.3310000	-1.2567771
16096.7100000	-34.9410230
16036.7130000	21.6285630
15917.4310000	2.6706961
15910.9440000	-1.9045048
15778.5890000	-32.0798370
15761.5160000	13.0716620
15684.9950000	-5.8782885
15540.6710000	33.0670970
15468.2230000	43.9813960
15437.2600000	-34.5217990
15367.0120000	43.8233250
15302.6370000	11.0021720
15216.8350000	6.8918063
15133.1450000	-36.8399230
15074.7940000	23.1804690
14994.8380000	6.4312791
14909.4180000	10.3817780
14852.2570000	22.5662470
14825.3420000	27.3194080
14717.7060000	50.3146030
14674.0080000	18.6900070
14622.1280000	-26.7977900
14560.0230000	1.8678420
14445.9330000	20.1252110
14384.3930000	-34.0101050
14324.0460000	-34.7610690
14213.5660000	4.6745519
14165.0880000	28.4529420
14067.0480000	7.3704955
14045.0730000	12.0033980
13953.2980000	41.1196820
13924.6480000	33.9678830
13843.4200000	28.3767700
13798.7120000	43.4995710
13732.4720000	-6.1930277
13699.3270000	-43.7574370
13584.9870000	-59.1007840
13545.5770000	23.7231790
13485.1280000	18.0078560
13356.3960000	-2.2574212
13294.2760000	-1.0849311
13263.7930000	-42.7235160
13191.2800000	27.3231090
13153.6870000	30.0789110
13104.1850000	-44.7865330
13031.9910000	5.2666108
12954.0220000	-16.4350900
12876.2260000	25.4428930
12837.2970000	8.5548488
12778.3850000	-40.9029400
12680.9410000	-12.0483540
12644.1640000	30.0855240
12624.0110000	-36.1826290
12533.2930000	-18.5947030
12485.6860000	37.2030040
12467.7130000	23.0828490
12324.0580000	-1.4371837
12328.7460000	33.5000670
12241.7080000	22.1960390
12208.2810000	31.2287460
12119.1670000	15.4104250
12130.3460000	-28.9997810
12046.9400000	-32.0638440
12022.4800000	-32.4009620
11892.7940000	-58.8092540
11877.6230000	-50.1888380
11752.5120000	-52.9339670
11753.4450000	-9.4362996
11651.6010000	21.9272710
11645.1100000	27.3248520
11532.3840000	-13.7617280
11534.3060000	2.6773621
11486.4100000	-2.4064402
11426.0140000	4.5173383
11364.9230000	-1.5739247
11320.3390000	-6.4539392
11243.8070000	11.4008410
11173.0940000	4.7439930
11127.4180000	-4.5137393
11102.4840000	46.1192460
11079.2130000	26.0953080
10996.7310000	-5.7094319
10965.3540000	13.6599750
10904.6540000	-16.7703330
10850.4730000	-43.6206390
10760.1430000	-18.0297340
10722.4400000	-22.9802550
10660.9140000	6.2353389
10658.0220000	-28.0399430
10577.7860000	-43.2290360
10577.1420000	-26.9202890
10505.3950000	-21.5494320
10448.8700000	-2.7170220
10428.4960000	-50.7834460
10345.4460000	0.9967388
10279.0550000	-13.0370660
10251.8110000	11.5844500
10181.5900000	-15.0333540
10156.5410000	29.6029680
10071.1110000	38.1886250
10023.5250000	4.2380833
10032.1690000	16.4936130
9933.7199000	35.6908890
9943.8877000	15.2556420
9897.3436000	26.4039570
9841.5005000	7.1773209
9771.7373000	22.1680370
9704.7576000	5.5558917
9693.2488000	4.8824136
9660.3807000	1.1319732
9562.8477000	-5.7464394
9521.2153000	-49.6766240
9458.0140000	23.9736390
9477.6766000	-32.4466900
9433.3840000	-5.1452758
9316.3322000	-17.5157760
9326.1491000	-9.5854954
9240.9680000	37.6147340
9272.6055000	-15.8181050
9245.3174000	-18.4499930
9207.1150000	7.2979349
9134.0019000	21.8926390
9062.1619000	-2.6163899
9059.3007000	-44.6104330
8958.0843000	-11.7467160
8901.9007000	-30.5648850
8883.3222000	-20.2571180
8833.1271000	23.7932890
8851.3256000	-19.5464820
8821.6120000	-26.2612470
8734.9058000	-44.3881800
8667.2190000	-35.6874260
8631.9452000	4.1486953
