jMRUI Data Textfile

Filename: dataset13_nWS.txt

PointsInDataset: 2048      
DatasetsInFile: 1         
SamplingInterval: 2.5E-1    
ZeroOrderPhase: 0E0       
BeginTime: 0E0       
TransmitterFrequency: 1.2322E8  
MagneticField: 2.9E0     
TypeOfNucleus: 0E0       
NameOfPatient: dataset13_nWS
DateOfExperiment: 
Spectrometer: 
AdditionalInfo: dataset13_nWS
SignalNames: dataset13_nWS.txt;


Signal and FFT
sig(real)	sig(imag)	fft(real)	fft(imag)
Signal 1 out of 1 in file
49941.4390000	-3.9448284
49753.7190000	-7.3872651
49532.7480000	33.8700400
49279.7300000	38.5065570
48916.3730000	78.6501040
48726.8410000	84.2514540
48595.1160000	72.4316090
48307.1340000	9.9085640
48004.2300000	84.4239270
47802.9160000	-54.3731040
47663.1650000	-65.1794180
47450.5420000	-66.5826520
47218.0570000	-25.6843120
46959.1380000	-54.3112590
46711.6360000	59.0481990
46547.3810000	-49.2824930
46252.6200000	-62.1071080
46032.4640000	-10.7748930
45820.7270000	-68.9321360
45724.2300000	-28.9009290
45483.6590000	-57.9517970
45233.1300000	-26.9532030
44942.8140000	-31.8995060
44812.4770000	35.0080750
44672.9680000	56.9298900
44437.6700000	48.0353130
44138.0200000	-43.1350670
43905.3330000	-61.1247480
43833.8610000	28.5620180
43587.0510000	-66.4153870
43403.3250000	-28.5857460
43156.7700000	-47.9996480
43007.9120000	-49.2197350
42714.6150000	29.8333560
42553.3280000	-44.2666350
42261.7180000	-64.5282590
42200.3110000	5.5825241
42017.5740000	-79.1613080
41802.6470000	-8.7984493
41567.8310000	16.8632850
41293.6210000	-70.3499990
41121.5270000	21.8413650
40936.9000000	-50.5276400
40713.5460000	-16.1474690
40497.1630000	-44.9768080
40414.2120000	-22.9137770
40155.0770000	26.7264900
40071.9120000	-38.2867580
39794.7440000	-58.3467020
39663.0380000	-29.8971190
39395.4420000	-34.6302450
39278.3140000	-64.3873840
39092.9210000	44.0151790
38976.8970000	38.1227020
38685.7780000	50.3944530
38529.8750000	45.9876780
38282.9760000	-58.5430030
38215.9420000	43.7281890
37989.1570000	31.5905030
37879.5260000	-54.6816070
37555.3040000	-76.0947210
37532.8890000	-29.6646920
37337.7950000	-31.9486900
37102.9720000	-61.7352930
36975.5410000	2.2011303
36765.8630000	32.0845200
36533.6580000	9.1620081
36429.4030000	-74.2061290
36324.5380000	33.4590740
35986.4260000	-17.7415850
35880.8840000	-2.3118810
35766.1250000	76.8147750
35623.3500000	29.6916600
35366.2520000	-68.0818380
35306.4630000	-46.9741940
34982.4520000	-52.9756770
34886.3780000	81.1410980
34690.5280000	-48.4009230
34575.6470000	1.1530051
34455.8160000	13.6947600
34215.2880000	84.0504750
34053.2760000	-49.5182980
33863.9300000	-24.0105730
33740.8400000	-9.6979367
33676.2380000	1.5487713
33493.4650000	16.4234280
33241.7530000	58.7203600
33218.7120000	-14.3548760
32915.2690000	81.1724670
32760.3290000	-15.9555730
32674.6440000	47.9543960
32535.1900000	-48.6610770
32301.7180000	68.3756840
32217.3810000	-70.7351040
32142.0380000	35.7691260
31877.0010000	-69.5591420
31781.5670000	26.2240610
31619.0500000	35.3876350
31443.8030000	15.9564920
31330.8090000	-37.3458280
31110.9860000	-40.2338340
30978.5500000	-36.3724370
30809.1820000	-5.9815250
30696.6250000	-60.1559440
30539.8780000	32.7058470
30436.5310000	-50.3500270
30363.9420000	-35.5993660
30086.9880000	-7.5702725
29941.9170000	-11.2986430
29943.2930000	-76.2195460
29714.8030000	-34.0931460
29616.7130000	-12.5102250
29452.3920000	34.9444250
29291.3820000	-59.0696110
29180.3360000	-83.1245230
29124.0000000	-60.6555840
28828.3390000	34.2398770
28788.2560000	-52.5633600
28696.9950000	-4.9390202
28490.1650000	-64.0692770
28441.5270000	32.7828780
28193.3780000	59.6708720
28023.9290000	-56.9731820
27892.0910000	22.9812590
27788.2440000	-28.8395360
27782.5220000	42.2888810
27554.9290000	77.8862790
27519.1170000	-18.0740930
27241.4270000	-73.2748350
27135.8450000	15.7621650
26997.8330000	-26.6579600
26942.0120000	68.3027270
26755.6910000	-26.6999230
26706.0820000	60.8731190
26591.0490000	67.8622490
26507.9760000	60.1823320
26260.9570000	18.1793480
26133.0290000	39.2247190
26017.2690000	-26.1135880
25868.7360000	64.8036880
25829.8200000	47.7916150
25633.7900000	-61.2788820
25539.0780000	5.6147118
25482.2280000	66.9996480
25263.2530000	-81.9339020
25197.7030000	-6.1651604
25051.8270000	71.0900640
25048.8770000	-0.4410609
24913.7360000	64.6288280
24731.0130000	-7.1709558
24648.0080000	-22.9700470
24540.7880000	-39.1464650
24442.1230000	-57.9249480
24271.7480000	72.2365910
24099.6650000	77.2098920
23978.5160000	-30.1082980
23888.2860000	8.0048989
23785.5070000	-38.4641800
23794.3610000	-23.4276600
23536.2250000	39.3892890
23467.3220000	-85.2545460
23369.5260000	80.4174480
23342.6050000	22.1337420
23174.5140000	-58.3508360
23101.0180000	18.2789640
22987.3610000	11.5665380
22910.4770000	3.2682335
22807.2960000	-66.0389880
22663.9900000	46.7014430
22491.6130000	-73.8604240
22407.7050000	-5.1040177
22375.7850000	-47.4841110
22164.7550000	32.2664680
22153.7040000	-21.3931990
21931.6530000	44.3773150
21927.5830000	57.2153340
21719.1350000	40.9125160
21653.6820000	-36.7678960
21535.4700000	48.5389000
21433.6480000	-30.4936430
21411.9930000	84.5130760
21345.0170000	-75.4843370
21115.0810000	67.5833370
21115.0970000	66.3290070
20977.5740000	42.8638500
20949.1920000	-83.6228920
20781.3210000	-10.4432780
20658.1360000	-53.4559230
20643.0370000	-76.2025460
20444.3910000	70.8325550
20419.8720000	71.7758270
20223.2710000	38.2018610
20168.5620000	-12.2102340
20172.9650000	-65.5744610
20098.5780000	12.7855830
19911.6450000	-69.1989030
19812.0550000	7.4830962
19743.7120000	-51.3595940
19713.9100000	-84.1717480
19507.6510000	77.2065670
19464.2600000	41.0190270
19331.7550000	42.2663050
19267.0980000	9.1960846
19227.4220000	-53.9193160
19050.5290000	55.5171020
19058.2350000	-76.5673100
18979.6050000	-36.4982470
18818.2370000	83.7841550
18792.9100000	-34.1712620
18685.3720000	4.6260218
18516.8650000	67.7850450
18396.6450000	78.6547680
18302.6540000	-3.8886088
18225.0910000	72.8056480
18137.5960000	-21.7542630
18102.2710000	6.4551877
18110.1100000	-77.8490610
17999.4680000	-76.6962810
17848.9480000	-44.2528530
17730.5500000	24.5612600
17686.7330000	-57.7186090
17665.9430000	-68.4931250
17462.6500000	41.8975740
17379.0490000	57.3262520
17395.9070000	62.5132890
17215.3900000	-33.9903090
17132.8930000	-32.0180510
17177.5220000	-10.8859210
17085.3500000	-42.3316540
16922.9520000	-63.7895050
16942.4380000	67.5879690
16791.0160000	-19.0733050
16768.8210000	75.9652600
16699.2960000	-78.4707430
16616.2600000	-17.3117370
16515.1310000	-36.7247970
16342.4630000	51.5062760
16373.4080000	-18.2447110
16310.2960000	-61.2185990
16249.0150000	11.3452160
16030.3890000	-35.4406450
16061.3320000	-74.2635870
15949.4950000	-45.3247020
15822.0700000	9.8374758
15744.2530000	-57.9172550
15693.9000000	34.1470840
15664.3950000	24.5216720
15660.6060000	17.2608460
15480.7270000	-82.1611420
15476.7940000	57.4414220
15453.1220000	29.2777870
15329.4170000	54.2796340
15163.0670000	47.6109200
15215.0050000	-51.9649710
15166.4320000	12.8967190
14965.9940000	-52.6030930
14921.6510000	-3.9861970
14867.5270000	85.1631400
14759.3890000	61.6200560
14725.4950000	62.2584050
14690.3480000	-1.2036473
14655.3590000	44.5519630
14556.4420000	-29.2086020
14406.4460000	50.8910320
14405.4810000	1.7464828
14377.0360000	-11.4638870
14205.5980000	-32.4561950
14225.0420000	24.4106830
14137.3680000	-74.7269980
13980.4780000	11.5884560
13993.0990000	-35.4299790
13846.3660000	-81.4087510
13939.1090000	-74.9237200
13787.6120000	-9.3399123
13762.9080000	-4.0877708
13663.2450000	-47.6627690
13617.2820000	-20.3443620
13532.7940000	-77.4818370
13481.9730000	-74.7535870
13348.1180000	-35.0752610
13278.0500000	-20.5941950
13250.6620000	-4.6567494
13228.9270000	40.7577390
13222.9180000	9.4393133
13025.7120000	68.2858210
13053.5110000	16.1404260
12969.1610000	78.0027680
12916.6150000	-55.1577430
12841.4910000	25.6878940
12820.4470000	32.9765120
12691.0820000	-42.2897670
12676.4580000	34.7383640
12592.0670000	22.6612240
12637.4550000	15.7585470
12443.1530000	33.2011760
12377.4080000	59.7554350
12438.5110000	-43.4542440
12388.5510000	47.0036910
12300.1480000	-36.9007140
12240.1220000	-11.7480810
12174.3480000	-77.4596710
12131.4490000	19.7010570
12032.7300000	-42.6150530
12060.0160000	77.6966020
11973.6020000	-25.0690100
11816.6710000	-73.5462390
11792.0920000	63.0037400
11830.4050000	-51.6949780
11648.7130000	38.2062060
11566.0120000	49.0615320
11528.6210000	67.9899150
11521.3420000	-27.9046220
11472.0480000	16.6827150
11423.1140000	-76.5582130
11451.6950000	-54.5364820
11314.6090000	9.7317772
11260.0250000	79.8443430
11140.8930000	40.9512480
11236.1630000	-18.2823410
11111.9100000	-20.1565180
11098.4270000	16.3031170
10920.1620000	63.0133830
11017.8070000	72.1982460
10813.8630000	51.3267740
10885.9050000	57.1612220
10823.9330000	50.9254180
10742.6540000	51.8038900
10611.7730000	-66.8806610
10611.6720000	-45.6054790
10530.0060000	28.2334460
10617.6820000	32.3100610
10538.4390000	-58.8213220
10374.6020000	-73.4440060
10319.5090000	-58.8875440
10376.3610000	2.1308489
10322.1290000	12.5591550
10263.4660000	-4.4135138
10133.5680000	-23.6701270
10095.1750000	-63.0019360
10020.7380000	-55.0799780
10143.5410000	55.4963850
9962.6277000	-74.8724550
9898.8750000	-37.3933470
9920.2062000	18.9642780
9893.1360000	37.1428980
9767.8841000	-41.8206720
9740.5164000	66.5107630
9718.9355000	25.4558150
9735.9598000	-3.9037439
9608.9466000	64.2779480
9603.8426000	-26.1096010
9607.0170000	26.9943790
9586.9674000	78.3878130
9379.6445000	-26.6464510
9394.2525000	-66.7399300
9341.4144000	3.6663144
9334.4158000	-42.3438890
9289.8954000	7.2334746
9202.7561000	-80.2203370
9267.5567000	14.1323770
9164.8669000	42.0897860
9072.7085000	25.1411830
9003.3518000	84.9900650
8956.1117000	73.5284470
8974.4788000	57.4536950
8863.1402000	65.8606780
8896.5823000	15.0019850
8827.3800000	19.8885170
8879.1920000	32.8095010
8699.9301000	-47.5745040
8682.9868000	54.7736590
8717.4627000	-57.8051440
8653.5706000	-66.3912550
8567.5631000	67.7279110
8486.4636000	82.4160710
8530.3367000	63.5244530
