jMRUI Data Textfile

Filename: dataset25_nWS.txt

PointsInDataset: 2048      
DatasetsInFile: 1         
SamplingInterval: 2.5E-1    
ZeroOrderPhase: 0E0       
BeginTime: 0E0       
TransmitterFrequency: 1.2322E8  
MagneticField: 2.9E0     
TypeOfNucleus: 0E0       
NameOfPatient: dataset25_nWS
DateOfExperiment: 
Spectrometer: 
AdditionalInfo: dataset25_nWS
SignalNames: dataset25_nWS.txt;


Signal and FFT
sig(real)	sig(imag)	fft(real)	fft(imag)
Signal 1 out of 1 in file
51004.8770000	-173.3166400
51051.6710000	-483.5869900
50502.9770000	-694.6192400
49831.2840000	-749.0576500
49196.5250000	-575.5741500
48741.7320000	-264.6654700
48597.2380000	164.0172400
48559.0150000	383.4628800
48583.3560000	465.6095700
48628.0340000	317.7741300
48594.9390000	137.8418300
48287.0560000	-77.0480000
47934.2800000	-231.7257700
47496.2480000	-284.4235700
47082.4600000	-192.8424700
46823.9540000	-34.3055830
46652.2160000	102.1410700
46581.5320000	193.7597100
46482.6590000	130.7696600
46319.6970000	10.6832220
46025.5200000	-120.6390800
45743.9180000	-161.8383300
45405.3020000	-136.8568900
45108.0380000	-36.0903230
44940.9450000	79.7208580
44793.1760000	206.0518100
44731.9700000	216.1910100
44602.1770000	192.7960200
44494.5200000	75.1617890
44278.5080000	-44.5920960
43987.7030000	-154.7564900
43643.4640000	-216.2161400
43295.3140000	-266.6709700
43038.8390000	-142.5513500
42818.9460000	-21.5369180
42678.3720000	168.2284500
42585.5330000	185.1867800
42450.0330000	245.7519200
42343.6420000	208.7482500
42239.0060000	66.5662290
42068.0840000	-78.3491840
41811.0010000	-103.5420000
41513.1980000	-186.7846300
41187.8370000	-161.0582300
40935.1510000	-110.9592000
40773.4340000	-29.6894190
40615.8870000	56.9235750
40465.7810000	124.8274300
40307.6590000	74.6212580
40244.1690000	105.9251700
40035.9090000	-2.7776579
39850.3090000	-99.1270180
39542.4440000	-150.7069600
39275.5840000	-157.1354100
39016.1430000	-111.2328800
38842.9340000	29.1165510
38722.7150000	107.1680800
38570.8130000	131.1606100
38501.7280000	134.2786900
38349.9060000	112.7447700
38238.7100000	17.5742210
38023.1320000	-57.0776250
37749.1890000	-83.3808100
37515.2520000	-99.8169430
37286.5040000	-27.9073480
37042.5110000	8.9220467
36931.6660000	68.5754630
36879.5190000	156.3276400
36766.8420000	69.0769610
36617.8860000	-9.3112443
36470.1480000	-29.5323790
36175.9070000	-103.8364000
35962.6240000	-154.9310200
35679.5280000	-65.5698840
35492.1180000	-13.3007680
35352.3350000	60.2740200
35287.3650000	103.2160300
35193.5360000	124.8004500
35096.9570000	42.4683390
34891.5020000	-66.4891510
34695.7570000	-116.6422000
34489.5200000	-83.6675840
34197.3340000	-69.7906920
34009.6960000	18.0735120
33871.9710000	116.6445500
33832.4670000	181.3873300
33753.9560000	157.0443200
33652.5900000	106.4781900
33524.3350000	19.2449040
33361.4120000	-113.8945900
33153.2160000	-100.2574000
32920.2170000	-143.0813300
32703.3190000	-113.3439400
32462.2240000	-74.6085130
32336.9000000	45.5942650
32266.4830000	98.3000900
32179.8220000	95.0857340
32050.2050000	32.7911070
31920.4230000	27.4120850
31736.9900000	-48.5075230
31548.7350000	-97.4598390
31390.2210000	-110.5261100
31210.6280000	-28.4531680
31025.7960000	-32.0811090
30934.7030000	11.1279510
30771.6110000	41.0856650
30701.4350000	40.1545820
30557.5540000	28.8013630
30382.0890000	-5.6122143
30232.9630000	22.1580600
30033.5300000	-47.2939170
29878.1250000	17.9811350
29799.6460000	66.1540180
29672.2920000	53.4159870
29572.2240000	73.5820000
29400.9730000	75.9017970
29286.8770000	49.4196640
29168.2450000	18.7458530
28983.1150000	-14.8278410
28857.4870000	-76.2420380
28706.4430000	-42.7175520
28546.6080000	-42.9506910
28361.0360000	-4.7407397
28282.0090000	35.4577770
28151.0060000	31.5724590
27980.3470000	45.2023750
27952.0090000	63.9805840
27814.1510000	4.2030069
27704.5710000	-38.7566920
27546.3230000	-23.8828750
27405.0090000	-18.7548430
27244.5210000	-28.2248960
27062.9280000	-30.4954010
27010.0840000	30.3559020
26890.8030000	53.2238630
26736.1900000	51.7852570
26639.9620000	55.3344240
26498.7500000	-0.0679828
26402.7730000	1.0523736
26289.1750000	-43.6197830
26135.4780000	-25.3107770
26031.2060000	-40.3563900
25885.8640000	0.9868731
25719.8180000	-42.7718950
25632.0010000	-8.8956588
25472.4240000	-30.1944550
25351.2470000	-11.1472250
25282.9120000	-40.1431090
25149.1400000	-15.1392150
25011.6220000	-8.6127144
24944.3800000	-29.4801050
24756.3510000	22.3507090
24694.1320000	-22.9458020
24593.4740000	35.7603030
24462.7660000	3.7834324
24366.4580000	24.0029290
24287.6700000	11.7095230
24161.7070000	10.8879200
24047.5760000	-6.3210064
23900.8230000	-39.6704690
23776.9140000	-10.7506380
23673.0640000	26.6486500
23576.8810000	-9.3304600
23447.3290000	33.9738650
23338.9940000	42.7964180
23235.7750000	15.2378210
23102.8700000	-16.0260430
22960.8530000	-19.5278790
22903.5470000	-7.6413582
22770.0360000	-5.6646500
22644.2800000	4.9229498
22509.1260000	-36.7340480
22468.6320000	16.7160780
22364.5420000	19.1474380
22289.6420000	14.6155680
22134.6590000	60.0890480
22041.5780000	54.5950450
21962.8020000	-9.6436646
21864.3730000	-20.4327040
21748.8530000	-45.9260920
21699.1300000	-29.2240450
21573.2920000	-7.3025094
21471.7400000	-39.8055790
21325.0300000	-1.4390487
21239.9070000	-34.5123880
21130.8180000	-21.4128280
21001.1520000	-20.0016510
20903.5030000	-46.3594440
20816.4620000	-15.7457150
20741.8730000	-21.3264560
20602.4390000	-34.4188450
20486.9290000	1.1377298
20443.9110000	5.3812057
20351.7680000	-29.8069290
20231.3160000	3.4586280
20144.3400000	33.8050010
20014.7640000	21.2335270
19993.6990000	10.3043220
19915.9920000	-15.3391400
19810.6680000	2.5732794
19716.4910000	13.4430200
19607.9550000	-0.0792492
19498.2110000	20.3477240
19386.9060000	-37.5419180
19314.2550000	-29.3515040
19257.1950000	27.1168200
19117.9370000	26.9571670
19095.8370000	-43.1518830
18949.9820000	22.0445910
18876.0700000	13.9747930
18756.7510000	-15.5599280
18719.9240000	-49.4710130
18555.5640000	-33.3932050
18464.2590000	40.2063580
18429.4210000	-11.4439610
18297.1370000	-22.4234550
18287.1560000	2.2181664
18175.7300000	17.0079310
18090.3760000	41.1691210
18017.2190000	20.5134590
17950.2340000	47.5438660
17855.6630000	-17.2319780
17722.6700000	34.5615380
17647.6370000	-24.3411430
17608.1780000	-32.8412190
17487.6890000	-41.3628050
17456.1300000	23.7631330
17357.1190000	11.5903250
17264.2320000	-0.0543934
17197.3490000	-5.9729850
17088.1370000	24.1466850
17021.6200000	6.7068333
16956.8070000	-8.2365114
16871.2610000	-28.8435090
16761.0580000	21.3631720
16640.3170000	23.1697540
16649.1370000	24.4367720
16577.0060000	45.7042850
16445.6830000	-18.1015050
16390.2170000	40.4110810
16279.0170000	0.1658317
16218.2020000	10.9541480
16163.3840000	-15.1770440
16064.5080000	-11.0216330
16011.4500000	22.3572780
15939.3160000	28.8789050
15813.3620000	12.2193260
15770.5310000	37.8557020
15671.7260000	7.1512583
15673.6620000	-23.3726490
15545.9340000	-7.8515466
15498.9380000	-53.0440320
15432.2860000	-28.2828920
15306.2390000	14.0162390
15256.2070000	-1.0219383
15209.8740000	8.8129321
15136.3860000	-22.1344610
15019.4810000	53.2329280
14972.8660000	16.3701730
14882.0510000	36.9507590
14844.8020000	-3.2011687
14771.1110000	21.8866640
14665.3310000	32.3122990
14596.2660000	-28.2632070
14589.6840000	31.2275440
14512.5640000	26.1521060
14469.5820000	51.8972600
14363.2490000	-5.3858708
14345.4870000	-8.4148628
14240.3320000	-29.9337180
14152.4520000	-49.1868150
14095.4690000	8.1916753
14041.3760000	5.4592652
13910.6740000	-8.8216143
13884.0340000	-15.6224540
13794.6020000	16.2789200
13718.4830000	-33.0350870
13723.9260000	29.4341580
13612.2450000	13.3485630
13529.6180000	-27.2870250
13489.5300000	-21.1923760
13409.9010000	-42.0359720
13403.9900000	28.3633160
13305.2910000	-29.8965510
13225.8050000	-14.4159790
13191.4610000	33.3942160
13136.4020000	22.4608250
13076.4240000	3.2797691
13034.6870000	-21.2395650
12975.7320000	-23.4447330
12879.7770000	-33.5023170
12849.0870000	-32.4848270
12717.8130000	12.9749210
12704.0480000	-17.8094360
12686.9550000	-12.2406650
12574.1070000	-15.0620790
12499.5380000	8.9648880
12521.8960000	27.7562950
12397.0000000	-26.1296780
12314.4700000	24.3212860
12286.7810000	-19.9086980
12212.7870000	-17.3076130
12171.5700000	-4.7225588
12064.0080000	31.3540820
12039.1780000	22.9790640
11979.7740000	-26.7441960
11975.6200000	-17.6239990
11862.9500000	7.8000634
11854.6070000	40.2742540
11763.3220000	-21.6349220
11751.5240000	-38.7389630
11638.3930000	-8.9016795
11569.5850000	-6.1480325
11575.8340000	-25.6085410
11507.3800000	-11.5785850
11469.9950000	41.0253540
11452.2200000	-6.4348140
11351.0250000	-34.1924800
11311.2880000	13.2342910
11243.1680000	-37.9926260
11205.3530000	-13.5000350
11102.2830000	27.0541040
11109.8660000	-2.7166411
11035.7820000	8.1425300
10953.4740000	19.6224870
10910.6750000	-37.3780540
10853.4510000	21.7759060
10855.8740000	12.6657600
10774.5870000	-11.1763200
10709.5100000	-14.4172820
10642.4390000	0.8289694
10588.2680000	-17.9063660
10599.1540000	41.4725150
10477.2710000	26.8977030
10499.4920000	25.8301410
10447.2300000	43.4217640
10382.0290000	12.7677990
10357.6840000	31.3130050
10252.3090000	39.2342420
10263.3900000	-2.5254256
10220.6170000	-36.2256620
10133.8140000	3.0787710
10060.6290000	3.7738188
10038.4150000	20.8284600
9969.6501000	-10.9512790
9900.6208000	-7.0389336
9881.3460000	25.7786000
9821.8051000	19.3003460
9815.2353000	-7.1026027
9771.8049000	41.8213130
9655.5962000	19.0502010
9664.6917000	13.3740870
9642.9410000	39.2712320
9571.1934000	22.2960100
9549.1070000	32.3622350
9504.6213000	-13.6362400
9449.4011000	3.8279888
9398.0091000	-18.0647380
9366.7824000	-45.6830400
9278.4759000	-6.3018367
9234.2256000	36.6877930
9247.6288000	-11.3095590
9178.8792000	-15.7897930
9104.9971000	6.0355402
9132.0528000	-12.8601850
9039.4806000	-17.8863720
9031.3143000	5.6875236
8990.2588000	-37.4219780
8876.7493000	-39.2733450
8879.3779000	-18.8484220
8778.1589000	-33.3042310
8754.7220000	-21.5507670
8724.8096000	3.5780969
8679.4556000	7.8617456
