jMRUI Data Textfile

Filename: dataset25_WS.txt

PointsInDataset: 2048      
DatasetsInFile: 1         
SamplingInterval: 2.5E-1    
ZeroOrderPhase: 0E0       
BeginTime: 0E0       
TransmitterFrequency: 1.2322E8  
MagneticField: 2.9E0     
TypeOfNucleus: 0E0       
NameOfPatient: dataset25_WS
DateOfExperiment: 
Spectrometer: 
AdditionalInfo: dataset25_WS
SignalNames: dataset25_WS.txt;


Signal and FFT
sig(real)	sig(imag)	fft(real)	fft(imag)
Signal 1 out of 1 in file
454.7884100	-199.3948000
771.4740900	-446.1180100
419.6253200	-740.5975100
-27.0239920	-776.8959100
-386.8814400	-589.5214600
-590.6725600	-233.6249200
-556.6905400	124.5085300
-328.9980700	388.9419600
-23.8768370	464.2850300
224.8672700	354.7750300
365.9467100	132.2584600
326.1125300	-112.0496800
168.1517000	-248.2442500
-21.6721760	-288.4678500
-178.9434000	-178.9208600
-226.8859500	-32.3372090
-172.8526500	90.1760130
-63.2595090	161.3339000
59.3096860	117.6679300
108.5214800	12.9150070
79.4688990	-86.7346390
-21.6380040	-153.6410600
-138.8163200	-129.6372400
-213.4425000	-27.4309900
-218.8027900	95.9702330
-136.8884200	202.3431900
-0.4576421	238.7868800
136.5650700	187.5430100
220.6334400	81.9610090
227.5501200	-62.9029210
147.2118000	-198.3196000
20.1863320	-252.0578400
-115.9896500	-230.7445800
-213.2088900	-122.5741700
-248.8770500	1.9869403
-210.3946100	130.9955000
-100.1080800	209.2391300
35.6586760	221.4492100
145.5311300	164.3498400
211.7873800	67.8083920
205.4901000	-42.9275520
153.6432700	-124.1339800
56.2362110	-181.2208900
-25.9813290	-164.7872900
-93.7870020	-113.9532400
-136.2885600	-23.6288040
-103.0723800	56.4902060
-44.3775000	103.1072500
51.2973040	104.9245500
114.8991000	72.9686670
131.5090100	-4.8159355
106.0215100	-83.9763820
30.6177240	-132.4329200
-48.1929500	-137.1979700
-124.0477600	-86.4891950
-140.5599900	15.0190710
-112.4519200	85.6386990
-48.4672970	140.7467600
38.0476230	149.9850500
111.3267200	96.8094790
138.7127500	13.6702660
96.3864960	-57.8384530
29.0468400	-97.9272870
-51.8118730	-106.0732600
-100.9956900	-40.5401500
-110.6962800	38.1310150
-76.0164530	104.0468700
4.8752079	129.3102800
86.0817490	93.1802760
125.4929000	27.9636490
96.4289290	-57.9651890
44.9323740	-111.3481300
-38.9907410	-131.3730900
-110.2688300	-80.7228550
-116.9374200	-13.6109760
-89.2414900	67.3437140
-30.4015290	110.1389200
41.7491580	82.2995840
90.8121870	30.2537820
93.1943010	-41.8213210
42.7638610	-96.4436530
-43.4728760	-121.4593300
-113.4239400	-85.0260480
-135.8752200	-0.9762959
-116.0085200	78.7030780
-40.0273340	151.7289100
35.8159540	156.0620900
115.7175300	109.7358600
163.1497100	10.7532240
141.9433500	-68.5500610
85.3647780	-136.6923900
1.0878721	-142.1951300
-78.1909890	-104.3471000
-115.4599800	-44.6259450
-103.5076200	27.6729390
-55.9298290	91.6622640
4.2264584	105.5385900
73.7335770	59.2350230
99.6942990	8.7064944
86.5068340	-32.4398550
37.5836980	-61.7090960
-8.0721587	-64.4213120
-44.4700090	-45.5035500
-44.5913240	-26.8244110
-38.6871540	10.4637510
-22.7864030	28.7648760
1.4426495	36.4501270
19.6442580	11.5902530
13.9747500	-9.3351102
-4.1472193	-14.1583130
-23.8655890	-0.6197860
-36.7422630	12.7522860
-27.8861120	21.8215070
-13.3937060	47.7265140
4.3923720	55.4709740
30.5920310	48.6385610
47.6810470	21.2603960
46.3167930	-16.3134730
35.0953970	-52.3333220
19.5510960	-66.0469180
-14.4571640	-60.6716640
-50.7962330	-32.1398950
-54.1105110	-5.9770101
-59.6254710	24.8908860
-31.0394470	34.4152180
-6.3528867	50.2011380
0.9782380	44.8094370
32.4139540	11.9477150
20.4968410	-5.3353537
22.5501870	-6.5844707
3.7651860	-21.4540520
-18.3194990	-20.9789210
-19.9616590	-4.8633277
-14.9502840	3.5494242
-16.3279540	20.9570280
-2.4842362	26.6790870
30.2059430	20.7968730
33.6847320	15.9524650
52.2743800	5.6430581
44.7887120	-31.1969200
23.0101300	-30.7567420
13.0419370	-48.7013270
-2.0016470	-31.4598720
-24.3029390	-30.0779330
-17.4470610	-12.7571980
-24.1619110	1.4340990
-12.1059450	3.4905649
-6.3047767	3.4777188
-15.1403230	1.4593226
-17.2869810	-0.7653703
-14.3934670	-5.9238373
-10.6340730	11.3681870
-17.8809620	11.0008600
-15.9932120	32.4802630
-10.1727470	23.8425350
5.4083571	30.7495980
14.3673720	19.6307870
27.7737970	12.0134120
31.8298760	0.7570854
20.3307400	-12.9945570
-5.0375843	-26.6139490
-16.1048600	-15.5348250
-15.5316120	-9.3894990
-16.8686500	-4.0951175
-16.3430010	0.6310154
-0.5697074	14.8636580
6.1042248	-0.2471905
9.7867209	4.1736050
-11.5311860	-5.5621421
-13.8839340	-15.1996630
-22.5084270	-14.4869520
-29.2592970	13.2946620
-22.3650550	10.1263580
-20.2251880	17.2613510
-5.2127662	34.3731670
2.5760691	35.1764750
21.6148360	32.4271550
34.2116090	25.1485400
38.1726920	1.9560070
21.0347910	0.1163275
22.6482650	-11.3586040
14.3095400	-11.5430420
18.4676700	-28.8495310
7.3664742	-25.5690500
10.6981800	-20.1859810
5.6805850	-26.5256580
-5.2484197	-14.6567020
-3.2304646	-25.3712930
-15.8967920	-22.5606180
-10.2355750	-24.0650370
-20.5913630	-22.9305920
-22.8220550	-19.4680090
-23.2325120	4.4522718
-15.1035660	3.0019418
-24.9965660	4.4318047
-4.8020690	19.4373160
3.7387935	23.6809060
4.1141907	15.6704980
9.9213244	8.4827489
15.3903210	21.2924900
16.0333030	6.4158464
20.7362310	-1.6267844
1.5420096	-6.1817976
3.4009788	-2.8345650
8.2303925	-1.0680495
7.0262673	5.2135059
-5.3603011	7.2875562
9.2466214	-11.8470280
-0.1592552	-8.2488386
4.1165250	-12.7114370
-1.8869564	-7.1790533
-11.4198510	-8.0723648
-17.8446540	-5.5037657
-27.2067900	-9.6666439
-14.8189630	7.6438438
-23.8992410	23.0894680
-5.1425842	12.5182050
-10.4741270	15.6783630
12.4299310	13.5648200
12.7986650	4.8477048
11.3540440	-1.7912290
14.6502610	-3.8513361
3.9620625	-9.1380460
1.2191697	-2.7463088
-3.8508840	0.2894969
11.6599110	2.1268479
0.8688785	-4.1296557
20.6206670	6.0300736
15.5037030	-14.1928870
5.7399746	-8.7007201
8.8420195	-25.3908040
-8.0995602	-21.3681980
-18.1841660	-20.8600970
-18.0205120	-14.2298350
-10.8358750	-6.2787833
-9.9216109	11.0948630
-8.7259797	10.0949250
8.9685861	4.0649125
13.0472120	0.7221156
0.5781936	-5.6262058
-5.7411851	-6.6852994
5.6236940	-6.2609662
-8.8884198	-10.6086230
-17.5617820	-3.9261974
-2.4795559	14.6380620
1.0678178	10.9381450
-3.8712893	9.9503240
16.6143300	16.3794840
14.2238970	-6.7798625
15.5065040	-0.7962820
11.9682560	-8.3829630
-2.6578221	-18.3565570
-16.5310880	-9.0912825
-5.8134720	4.5332538
-6.7896724	5.5048542
-3.7112885	19.7634140
0.1519912	9.2857869
0.7578956	18.3015760
1.8468248	0.7959207
12.3057360	7.8140506
13.5034220	-6.7426208
5.7894746	-7.8991748
-7.4372512	-6.3516068
-14.5511460	-7.7731956
-5.7331381	0.3360381
-4.5923861	16.3715040
3.8273675	17.8700890
9.4393067	18.2315320
18.0206290	8.7951462
15.5956050	-0.7236905
13.3932640	-15.3119420
16.7092230	-18.5854270
4.7303668	-11.1192390
-6.9732418	-20.5322190
-11.5236700	-15.6751830
-2.3205828	0.5076832
-10.0154010	-7.7755361
-5.2231947	8.6974360
7.3724995	-10.0867950
-5.6469167	-15.2638700
-10.5426870	-17.4981110
-7.4832100	-8.2822511
-10.3857040	-0.5765198
-9.0803410	-2.6394010
-11.9585140	2.5672650
-1.0861480	0.7830259
-3.5929175	2.4426734
-6.1852771	-1.9926373
5.0832025	0.0404454
-7.9342879	8.0847121
-3.5464870	7.4237454
-6.3151757	-0.6059009
2.4298873	13.3008660
-3.0411963	19.6791290
8.9801553	9.6729678
4.5218745	7.6936061
21.2220730	-0.9125870
22.5065170	0.9281529
6.4194154	-14.4718720
12.8108250	-16.1476270
-6.9336084	-14.4504050
-5.7924696	-15.9433270
-13.2127480	-17.1113790
-14.8719570	5.4623350
-14.4852260	10.0988670
-5.8784291	15.2102370
-11.5559600	9.6223166
7.9427200	13.1652960
9.1380244	-2.5704949
8.6521816	0.2332461
-12.1123770	4.2529387
-14.2514150	-4.8008147
4.6306240	9.6173238
3.7352514	15.3120720
4.4502656	20.4972530
13.9618380	5.1778544
10.4587330	9.2799088
9.2762965	1.4434318
19.3000560	-8.6219454
11.9524000	-15.6833010
15.8907050	-0.2637482
2.6994790	-15.2067090
2.8095627	-4.9445849
0.6437790	-6.6573113
9.9789070	-7.4336399
10.4781840	-1.1802669
0.6266373	-7.2228548
11.5559210	-6.4816624
-9.7708842	-5.0691623
-15.1649920	-10.0407330
-10.9837860	-13.7373020
-12.3207020	-7.7792980
-6.4258954	10.1179860
-4.6472509	2.4884694
3.2953455	14.9786660
-0.8632065	7.4216338
8.0418725	10.3757760
12.0696370	2.1960053
11.9877320	-12.0113580
7.9124563	-4.6865960
4.1653974	0.8538312
-2.9229528	-0.1916760
-3.1384452	-0.7155091
-6.6923860	-9.9284947
0.7998859	-13.8363110
-7.3772377	-7.7821733
-11.7043660	-9.7877481
-19.8342010	-9.8061544
-18.8939720	-1.2709061
-18.7705410	-2.7941337
-12.1191840	18.3577590
-20.8171360	21.7071090
7.8844802	18.1537340
5.4326964	16.5152250
21.6865330	4.7497849
18.8473360	-4.5404799
13.6920400	-0.7077139
0.6967936	-13.6753190
-2.5526413	-17.3521030
5.0538525	-4.9403461
-11.2226020	4.2117803
2.6844887	0.6401183
5.6653111	7.2129059
15.0611660	9.7441008
10.0358710	4.7742403
20.5493520	-8.8152954
5.7758364	-7.3653582
7.7268744	-23.0045830
-4.1561531	-23.7442930
-19.4529480	-13.0541540
-26.5512990	1.7200315
-13.8884610	6.8971398
-22.8486360	3.1217729
-6.3904328	1.6561409
-1.6830136	14.8811040
-0.5200801	2.7552538
3.8968706	15.8748070
5.3917690	-1.2008425
-1.4010559	12.4280370
-7.1960872	9.7808600
9.5818245	22.3115330
18.8781300	20.9279180
8.4025358	18.1590570
12.7674710	-2.3397910
25.9040450	-14.9277230
19.2914030	-4.5201932
8.2679442	-21.4189130
-6.0582784	-11.4261080
-18.6346480	-8.7261242
-13.5935260	-10.8793340
-18.4988420	-4.1536122
-1.2895577	18.3975310
2.3421844	4.5489741
18.1184130	-2.6858809
8.5513450	-7.5419239
12.8396590	2.2283217
13.2028220	-1.5751796
-5.8641992	-6.0872728
-12.3882320	-0.7980250
-3.9511467	1.3588514
1.7217236	16.3669980
2.7519473	3.1254787
5.4843281	-0.7768890
14.0467290	4.8650554
10.3036020	-6.6065121
18.1346090	-19.6934980
-5.0907713	-11.7661410
-11.3044440	-14.8782010
-17.8880150	-6.2549692
-18.2354570	-5.0095983
-5.2098437	1.1324485
4.1828930	6.2390598
-2.1392409	14.2489430
0.2871401	-6.3183786
8.3782436	-9.2051240
-2.8973390	-4.3073554
-13.3846640	-16.8522960
-15.6929530	-14.9944860
-17.2196970	-1.0329773
-27.3920570	-1.2426219
-11.3682360	7.0519615
-15.1666150	24.8479890
