jMRUI Data Textfile

Filename: dataset24_WS.txt

PointsInDataset: 2048      
DatasetsInFile: 1         
SamplingInterval: 2.5E-1    
ZeroOrderPhase: 0E0       
BeginTime: 0E0       
TransmitterFrequency: 1.2322E8  
MagneticField: 2.9E0     
TypeOfNucleus: 0E0       
NameOfPatient: dataset24_WS
DateOfExperiment: 
Spectrometer: 
AdditionalInfo: dataset24_WS
SignalNames: dataset24_WS.txt;


Signal and FFT
sig(real)	sig(imag)	fft(real)	fft(imag)
Signal 1 out of 1 in file
264.7385400	1154.0767000
597.5468000	1043.0173000
568.3968600	870.5606000
488.6920400	776.0931900
420.5526100	776.8733600
413.8006900	827.8551800
458.7584100	896.9097200
585.9591700	947.9231500
743.8624900	937.6068000
908.1634700	864.5594800
1039.8470000	744.9846200
1122.1938000	596.9462600
1169.6447000	431.5114200
1178.9506000	293.6515000
1158.4037000	171.0691900
1149.0583000	65.4898310
1128.1756000	-20.9941420
1110.5236000	-112.9743000
1087.5974000	-214.3980600
1059.5696000	-299.0044800
1030.4889000	-389.1451500
995.1644700	-472.5353800
955.6492000	-556.2025800
923.1892900	-640.5534400
871.1555000	-728.7731200
802.4561200	-828.1947300
724.4487600	-923.3794600
608.7937700	-1006.2957000
482.3016100	-1070.8630000
348.1154000	-1100.3225000
216.2512700	-1105.4062000
96.9030850	-1089.3548000
-2.6919272	-1062.8194000
-88.9166850	-1023.6743000
-154.6381100	-1000.5240000
-228.6494100	-980.0249100
-303.9538200	-960.4445500
-383.3388100	-939.1172900
-466.5199800	-904.5918000
-554.5280700	-867.1556900
-635.1352500	-811.0304200
-724.2074700	-746.0693400
-796.5117500	-675.3474400
-863.8642700	-588.0966800
-924.3696400	-485.4632500
-964.4455700	-380.6504700
-986.6423000	-266.5364900
-995.0734100	-157.9864000
-976.9182900	-51.6235720
-951.9458100	33.6262920
-925.4206000	113.0968200
-901.4855800	183.1094600
-883.2291200	251.9908200
-867.0360700	328.6721700
-842.5177700	413.8049600
-807.3804900	514.1769900
-737.8047600	610.7435700
-659.3951300	687.8898700
-553.4568500	757.2463900
-448.7483300	795.7287700
-341.8209400	805.4960600
-253.3385400	799.0725600
-182.2347800	775.9660700
-120.7276600	770.7145200
-69.6048380	765.3110800
-18.3327210	760.0565200
44.8345800	769.2603400
109.2267600	764.6299300
184.2643400	753.7095100
258.6606300	739.4019100
339.4788800	697.4984600
402.1543800	654.2553200
471.5175800	606.1862300
519.9276300	553.0400600
575.9467100	486.1168400
608.6912900	410.4140900
637.0011100	344.3980100
651.6684900	261.3308500
661.9282600	196.1935700
652.8573800	130.6824200
643.3867400	74.1265620
632.3091000	19.9362570
627.9023000	-23.2002860
622.5784700	-76.3752510
622.8614400	-128.2635000
614.2377400	-199.8914900
599.9468700	-265.3384300
558.3726300	-336.4575400
502.9569500	-400.2729900
432.8265800	-450.3843100
361.2999300	-477.0994700
300.1803000	-490.8583200
243.0600000	-482.7759600
202.8659500	-483.2343800
160.6835500	-479.2740100
129.4638800	-480.2619100
102.5580000	-495.8347300
63.2812670	-502.5724500
16.9448670	-518.3378700
-39.7645620	-517.7978100
-95.2689630	-520.3266400
-155.1478800	-502.7510600
-214.1553500	-477.0102800
-262.1809700	-434.8925500
-312.9281800	-390.9189400
-341.1440000	-349.8992300
-370.8189000	-294.4520600
-380.9874300	-240.4097800
-384.5077200	-193.2141900
-389.9371500	-145.7176800
-377.0368800	-106.3836100
-368.0389400	-74.9588850
-373.1735900	-50.8287290
-368.9033000	-26.9437690
-377.4849900	3.3592239
-374.8447300	33.5000350
-368.5254600	81.1220630
-355.8153200	119.4570400
-330.7135200	165.9967800
-297.6516200	194.2049700
-265.4887500	222.4011600
-228.7063900	234.2500600
-188.2543200	242.3363200
-162.1574500	242.8027600
-147.8787700	236.5533400
-129.7803500	241.0048900
-110.6207800	247.9426600
-98.4670330	259.5451300
-79.5041480	265.7221100
-50.9917960	283.5171100
-22.0125730	288.4221900
15.6906300	288.3199800
50.3659500	282.9924300
78.1164570	271.2006000
115.8266000	259.4293400
138.1273600	239.6453900
160.7077900	211.7460200
185.8444600	173.8553700
191.9238100	149.2240600
192.8038800	113.1409500
183.8743000	89.5775620
189.2572400	78.8549100
178.2559600	58.7307320
178.9750000	49.4821850
184.6979800	33.2090460
183.3060600	23.0337590
189.8664800	5.7967852
189.4478100	-17.2146080
178.2818700	-43.1553210
171.6864300	-64.6342740
144.6960500	-75.8257310
128.6398900	-92.1233740
109.8921700	-98.2636100
96.4592930	-93.0462220
88.3382190	-96.0683060
78.8975240	-84.8130250
79.0384690	-90.5946060
78.3667160	-98.8764040
74.4930350	-106.2336900
63.6790320	-118.6300600
57.8675460	-126.9974000
37.5951660	-141.7305800
17.4593490	-151.4979100
-13.3816600	-150.8051900
-28.1792170	-146.0818100
-49.1668600	-123.1964900
-74.5984660	-109.7906400
-79.7085110	-87.7803190
-85.0749020	-70.6025940
-77.1313550	-49.7032910
-73.7184050	-43.3539260
-69.4739140	-36.9809300
-58.0686790	-35.1617770
-58.0937110	-27.8394890
-59.1423870	-35.4473190
-63.6906410	-31.0754970
-66.8641270	-18.5585600
-72.7918250	-18.7358060
-74.6067250	0.0670912
-69.3249060	5.2677029
-57.8865020	15.2951300
-54.8835150	17.7969660
-49.0244840	16.0821120
-37.9463740	18.0946280
-33.6775210	11.0649440
-43.8746370	13.4541590
-47.0076230	8.0117411
-51.0820920	10.2722180
-52.7695850	22.5278770
-49.8539920	29.8055900
-50.7440170	42.4371170
-50.6859210	48.9040190
-40.1759410	61.9469210
-31.0088940	64.0149570
-15.1886480	70.8873910
1.3746460	70.8158410
13.7343400	56.5494350
21.0736430	45.9624000
22.1402000	43.2978030
23.6414240	31.4275370
26.8419700	29.6472690
12.5608410	19.7509420
16.7733730	22.4877290
10.8182110	22.9813770
17.9050000	24.5399220
18.7536320	33.7295580
25.7311140	21.2079140
40.4428110	15.6232360
38.0210410	8.6611229
32.7215710	2.5615654
30.0658650	-0.9097412
27.3462850	-11.2993220
16.8602900	-12.6987320
9.2534241	-5.5520245
5.0462572	-8.2007979
3.5464987	1.5008447
12.1567960	10.6450730
18.2299850	7.6555935
18.0786340	6.5401878
34.0791700	2.7103299
37.0146160	-5.9182154
41.4796930	-8.1230403
35.4019290	-22.5074660
28.6100930	-34.4696360
21.3274030	-38.8151740
10.5528160	-38.7209940
-7.0830021	-40.8904410
-10.0370650	-36.8071180
-12.2251750	-28.0982160
-13.3432400	-14.3561070
-18.1409540	-4.4490742
-9.0811096	2.0741355
-1.9989653	-6.3185973
-4.1047069	-7.9959287
-3.4596136	-9.7181078
-1.1209698	-13.5989390
-5.3117855	-13.5883460
-10.4319040	-18.6404250
-5.2740407	-15.7227010
-11.8690190	-9.0845095
-12.6478360	-5.5678474
-10.6940520	-3.8435034
-14.4087100	-1.0053420
-15.3003230	4.5105083
-6.4259318	-2.2521133
-10.8978990	-0.5664375
-12.4513090	-3.6678951
-7.2684437	-9.6673829
-9.4730113	-11.5677530
-13.1505440	-8.7455170
-21.7280630	-4.5482578
-29.3729080	3.8474966
-22.3843160	12.2178030
-19.7617220	18.3349650
-6.6188370	21.4078010
-2.6788861	24.3230680
1.3645529	29.5886750
10.3584660	14.4280900
12.3057230	12.5567530
17.7325990	9.1214462
16.6127760	2.5559349
4.8715829	-5.2584348
4.5452962	-3.2828318
0.6190522	3.1914038
-6.8260860	3.4789548
2.4423556	7.7749602
-2.9328004	11.8901300
2.4914632	5.6052686
7.3280946	8.6032429
18.2055630	6.6531424
9.4568457	-4.0251843
9.5707634	-1.9205518
11.3461960	-6.7779145
3.1882644	-9.5103930
3.2951465	-13.6013050
-1.1181265	-10.1442550
-12.0327320	1.5650290
-3.4406036	2.9466132
-8.4733432	1.1461711
2.5432732	10.1852760
1.6943700	9.2397927
10.9995710	3.2165268
13.6219830	-5.7412303
5.7524964	-4.0480864
5.9962614	-7.8867426
-1.0905861	-17.0702300
-3.2466836	-16.7125970
-16.9928740	-12.0054860
-12.9894680	-4.2763623
-15.4866320	1.6195614
-12.8912270	6.6367077
-10.3988010	13.9510290
-4.0146013	17.8385060
2.3696655	20.0817570
5.4749159	15.1703770
8.7255091	2.3002869
15.7445010	-0.3108656
6.3087761	-4.3454352
10.5788170	-13.0345570
-2.1611417	-15.3596810
-2.1318613	-8.6987612
-1.3706358	-12.9340750
-12.5882010	-3.0142676
-2.3459938	-2.0271635
-11.0408660	6.4703334
-2.2198525	3.7082983
1.9422316	6.9861761
-1.6769879	-0.2326479
3.2243155	-0.0293289
-5.0321677	2.9484781
0.0965653	2.1772083
-3.7380622	1.3214818
-3.9119753	6.1493493
-7.5305367	8.0224635
-1.7743500	7.4082587
-1.1428962	7.4020921
-3.3153660	11.8245340
6.3647402	15.6172480
10.1462820	10.8069700
14.1351870	8.2121717
12.2722940	-1.9631928
10.5630050	-8.9712048
6.1359494	-14.9081600
-0.2040249	-14.2508160
-4.1377695	-16.8932090
-1.5314934	-14.1254700
-9.9841470	-1.2316411
-5.5127921	-2.6144034
-5.5070419	3.1916393
-8.2493337	2.7704219
-4.7077974	2.2800881
2.0655310	4.5620097
0.5740082	-3.3524772
2.7436305	-6.4285875
2.3668577	-1.8436799
-0.2961395	-2.4647794
-3.2179814	-5.0395023
-5.2230151	1.2309419
-5.2337827	4.6564225
-2.6492040	8.0870674
-4.9560638	10.4412650
1.6310411	3.4289949
0.1706423	3.0920673
1.0354063	7.2515055
5.3311706	-4.4871945
-1.0707230	0.7861796
2.1840729	-3.2282128
-5.7009605	-2.6216074
-3.4160163	-1.7631071
-8.7797911	-0.0138501
-12.6827940	8.4232023
-6.7050186	10.1788300
-2.2448398	12.3147680
0.7519785	15.2483680
13.6932460	16.9515310
11.8477160	11.5481020
10.4017300	6.3129195
12.1191580	-5.9771714
10.8444620	-3.1547261
6.8532169	-9.6603113
0.3743586	-7.1178970
2.3894095	-11.2066900
-2.0482698	-12.3737210
-7.4701574	-10.4691990
-5.2967381	0.1720945
-3.7978920	-1.1027657
-0.7964327	-0.9596153
-2.6557629	-1.5236229
2.0308126	-6.6323149
-0.6941746	-9.9632557
-5.5982473	-5.3052476
-11.0477360	-10.8007650
-10.2365520	1.6286766
-9.5287338	1.7217907
-14.0636930	4.4876979
-6.9691815	4.8588552
-2.6419158	10.3063140
0.4634203	19.4907780
4.5932334	11.5844460
8.2663137	11.1247310
9.1531508	11.9168740
9.5421308	6.4135904
15.7734310	-3.1820914
12.6815810	-12.2526420
2.8996335	-12.6217640
-3.7193695	-6.8721909
-4.5132024	-9.0914002
-5.8359635	-4.0002732
-9.4544758	-1.9724829
-10.2887910	7.3402613
-2.2783685	7.1084532
-5.6803667	11.5473190
0.5210931	9.5205343
0.5445774	1.4383577
9.0896632	3.5960119
9.3901367	4.0234772
7.4876290	0.1053009
-1.3080797	-3.2186959
-3.9043413	-9.5664967
-6.8433525	-7.4441849
-1.7841102	-1.2786123
-6.8068554	-0.7650755
2.5013150	8.4132139
-4.3943695	5.9222407
7.6448579	0.4499410
8.1570863	1.2304670
8.2638738	-6.4962819
1.2579808	-1.3161482
2.3851052	-6.7047043
-6.0903230	-8.2452980
-7.5513022	-5.4279898
-3.0365237	-8.4214085
-12.7909740	-1.7640032
