jMRUI Data Textfile

Filename: dataset15_nWS.txt

PointsInDataset: 2048      
DatasetsInFile: 1         
SamplingInterval: 2.5E-1    
ZeroOrderPhase: 0E0       
BeginTime: 0E0       
TransmitterFrequency: 1.2322E8  
MagneticField: 2.9E0     
TypeOfNucleus: 0E0       
NameOfPatient: dataset15_nWS
DateOfExperiment: 
Spectrometer: 
AdditionalInfo: dataset15_nWS
SignalNames: dataset15_nWS.txt;


Signal and FFT
sig(real)	sig(imag)	fft(real)	fft(imag)
Signal 1 out of 1 in file
49893.9220000	-8.7865049
49715.9090000	5.2701378
49499.1250000	19.9304450
49214.1250000	22.7293910
49002.0330000	7.6595257
48741.9620000	-29.8591240
48588.4330000	-16.3127360
48296.8740000	20.6621980
48122.1630000	-61.0290040
47887.4100000	16.2080370
47605.2770000	52.1789290
47428.4920000	-8.8354510
47133.0950000	-10.2237380
46931.1970000	0.8314689
46713.7410000	39.9407020
46580.4150000	-1.0121969
46366.5420000	-63.2127860
46083.8250000	-28.1273120
45836.7340000	-38.8572650
45631.3480000	36.8377520
45399.2750000	39.0241550
45226.7650000	54.9779630
44989.7830000	51.1098620
44771.4970000	41.3926550
44565.9730000	34.7578610
44412.7460000	29.4840970
44124.5690000	-31.0889180
43987.8870000	13.9718470
43734.7770000	-52.8750370
43506.0090000	-63.7287560
43363.9510000	7.0305812
43144.2490000	35.1464820
42915.5750000	32.0839150
42777.5650000	-14.7876150
42528.0220000	62.6948350
42300.0540000	-58.9413430
42199.1440000	15.4375280
41995.7770000	-25.4241740
41696.6370000	-49.8157270
41591.8620000	32.5632070
41330.9390000	1.4281438
41220.1110000	-17.2897600
41024.4510000	-37.0373930
40774.3600000	-31.9593220
40545.5520000	14.2121120
40438.6100000	-55.6430200
40261.3760000	4.7631688
39979.9390000	-48.8806420
39833.2220000	63.2321800
39650.6620000	18.8497010
39478.1630000	-28.8949120
39267.8670000	-42.6734180
39071.6920000	36.5509260
38909.2290000	26.1383520
38666.9890000	44.4545900
38492.5690000	-46.5401020
38315.8470000	-34.5959010
38189.1030000	-48.1203350
37967.5580000	62.2657610
37781.5330000	-21.1630830
37667.0730000	-61.1535110
37518.0680000	-41.4083170
37338.4320000	-0.7848370
37138.0160000	1.1028943
36968.6510000	-22.8754580
36702.6550000	58.1250130
36523.6990000	-27.5409530
36422.7760000	-53.5565580
36205.3270000	-10.5002500
36088.2850000	43.0031170
35850.0550000	60.1303500
35697.4930000	-4.3688365
35605.0090000	59.4317010
35371.0530000	-8.1521007
35176.0060000	-53.3492740
35029.7360000	-27.7865000
34874.7480000	8.7792616
34688.0130000	-54.7244090
34620.2000000	21.0233790
34403.3170000	-50.2117320
34211.8490000	-34.8254860
34144.8060000	-18.5479490
33944.5610000	51.8313890
33772.7810000	36.0386920
33600.8070000	-11.7243060
33404.7920000	-42.9907090
33345.7680000	13.5866850
33118.0770000	10.8315780
33024.8810000	-57.3229800
32765.7000000	30.5347600
32718.0670000	-43.7162910
32465.3760000	51.7055210
32382.7330000	24.3098280
32216.3430000	-49.6239250
32108.3190000	-35.5887640
31969.3830000	30.6997180
31709.0920000	33.7660200
31657.5180000	-12.6473390
31495.3700000	3.7291723
31275.8790000	61.2742170
31212.5830000	-20.7977270
31002.3650000	61.2478050
30895.2690000	-29.1556290
30784.7430000	5.3499260
30547.6000000	-46.0300200
30489.9120000	16.9052210
30253.7460000	-8.9139042
30165.2930000	-57.7606270
30037.5040000	47.4533450
29900.9160000	-40.7023290
29738.1900000	-16.4370470
29531.4750000	-10.8368260
29486.6260000	-6.2082090
29349.6460000	60.6119680
29186.7790000	50.4595640
29045.7020000	20.6995870
28919.9080000	50.1565690
28713.0980000	-8.6856758
28585.2010000	47.1785110
28439.9960000	-5.3030860
28349.7640000	-5.2775312
28242.4840000	-57.5860320
28064.1350000	-55.8500010
27963.6680000	-6.7096739
27865.6890000	-60.9543690
27677.9230000	0.1368852
27537.8520000	-62.0622150
27495.6940000	25.1051720
27362.9560000	-33.8247660
27132.3070000	-30.7157160
27083.8500000	37.8916410
26893.1490000	19.0162450
26778.9270000	-41.8746420
26735.2930000	50.2058320
26490.5310000	37.3684790
26378.4920000	29.0478910
26345.9960000	29.1320560
26229.6100000	53.3243400
26119.2360000	-18.4108830
25872.0130000	40.0500520
25791.2760000	-37.7461080
25713.2130000	17.2270830
25613.7590000	-3.3639469
25465.7920000	-62.0297670
25316.1560000	-60.4519880
25190.1920000	-49.7060640
25135.4070000	3.0638278
24993.8410000	5.0337749
24870.6830000	2.6081775
24759.8130000	56.4472060
24568.7890000	-29.1867410
24489.7580000	-27.8620650
24412.0540000	33.8892410
24253.4730000	-17.2345250
24138.5480000	6.2439441
24006.9020000	-56.4082810
23978.9990000	-34.1714660
23799.0810000	41.4209430
23738.4790000	-17.5865490
23652.6450000	-55.2607590
23533.8010000	-22.1581940
23322.7160000	46.8649180
23310.4950000	63.4466700
23168.4740000	26.5992200
23083.7320000	-7.1798029
22908.7950000	56.3390350
22858.2060000	-19.5431670
22697.7980000	-34.8843100
22565.8540000	-56.0567800
22552.0460000	-31.7556400
22350.1970000	-59.4502920
22305.0560000	34.2766860
22223.1850000	53.7787420
22032.4480000	50.2924230
21941.7350000	7.4074062
21917.7120000	61.1571110
21840.9800000	54.0354850
21680.2440000	-21.1222980
21598.4580000	-9.3235889
21418.9700000	-16.7484390
21407.5690000	-0.3630537
21247.9470000	35.1254160
21165.8850000	45.8252080
21015.0190000	-27.3273970
21037.7040000	20.9241310
20865.2160000	34.6238990
20805.7330000	55.9598380
20661.0180000	-63.7321850
20648.8000000	49.7936560
20497.3460000	-55.9156910
20365.6470000	34.8292900
20253.7400000	7.3167453
20238.1050000	-23.5612790
20151.4150000	2.0958240
20002.5460000	34.5050330
19974.0700000	25.0452280
19875.9400000	60.5057150
19710.9810000	35.0281650
19598.5860000	8.4217495
19499.7190000	45.5559360
19498.5990000	12.8532660
19337.3150000	44.4610060
19220.5470000	-55.6047540
19133.4100000	-30.0067760
19064.2910000	60.1029130
19023.1380000	28.8015440
18946.3820000	-32.7331730
18798.2860000	23.8325340
18749.9080000	-31.5850120
18694.2800000	59.9412480
18622.8310000	16.4673230
18500.9230000	59.1031400
18390.5330000	-19.5737020
18253.3780000	56.0129790
18247.8130000	18.9567600
18161.7830000	-14.7204440
17995.1970000	-29.3212760
17934.5220000	-34.9375650
17824.1550000	-58.5752640
17853.1490000	22.4588520
17749.5660000	29.7019330
17684.6460000	-20.5142100
17566.0310000	0.1426650
17433.1860000	-45.7032940
17411.4560000	47.3412270
17240.5680000	-54.7897410
17229.7190000	16.2081390
17108.6630000	23.9997620
17035.4140000	-28.2308810
16948.2800000	-15.2890490
16942.7800000	-62.2826650
16864.2550000	-59.3549730
16702.7000000	-32.8958460
16665.8390000	38.4672580
16570.4600000	8.1156394
16523.0250000	46.0319710
16453.3440000	-61.4788450
16388.1570000	-6.9381202
16299.6660000	36.5174970
16143.6440000	-34.7661100
16099.5980000	-22.0967690
16077.0430000	38.9159820
15921.7900000	33.8169400
15892.6600000	42.8758260
15875.3340000	-62.1966570
15792.0720000	3.2458802
15680.3860000	47.3835950
15636.4650000	-54.7878800
15568.3480000	28.8369190
15505.6410000	-37.4431320
15358.0270000	-20.1811400
15249.0450000	-17.6127100
15215.6170000	-11.2785360
15213.5960000	-20.6701660
15133.3230000	18.1445950
15062.2060000	-27.7018460
14971.2570000	44.7621320
14879.1490000	64.1353540
14772.9070000	-32.4297220
14709.9240000	-1.4566919
14714.9270000	-46.4893530
14542.0490000	-55.9799810
14509.9850000	61.6026230
14432.6840000	44.0027470
14417.8950000	21.6794610
14357.6970000	-8.1018817
14310.7930000	-37.4114080
14164.1370000	10.0607040
14086.2890000	-7.6514804
14103.1260000	20.4675450
14040.1220000	-41.1452690
13938.7940000	37.3999070
13846.0680000	13.6487390
13787.8440000	-12.5422100
13687.9470000	32.6559290
13708.2160000	13.3436720
13633.6350000	47.4551930
13567.6620000	-1.4476440
13445.2660000	-59.9178410
13439.0100000	47.3206740
13347.3460000	-39.4220170
13257.6450000	-35.7296420
13215.3230000	48.8610830
13161.6750000	40.3035930
13146.5290000	-16.3504300
12973.4940000	44.4707620
12988.1930000	29.9969400
12881.5620000	-20.5141210
12807.8630000	23.0613860
12754.9300000	-19.3666790
12721.0200000	-59.1765430
12726.3130000	-57.0384620
12587.4320000	28.6151100
12514.5970000	40.2017850
12509.4990000	-47.2435440
12402.5590000	60.5554790
12346.5750000	-60.0616320
12278.4820000	-56.2409710
12303.7390000	-31.6323900
12139.7180000	-51.7841930
12109.6400000	48.6168230
12094.2780000	21.8764100
12060.0640000	10.5700910
11950.2620000	10.0636090
11980.6850000	-38.1546040
11873.6730000	62.1613580
11799.9820000	56.3481460
11702.0470000	61.9363060
11708.1430000	11.3122160
11595.0470000	63.9836210
11548.3120000	-4.2490263
11579.6340000	15.7922070
11489.0090000	-60.5948380
11412.8210000	37.1738590
11373.9350000	59.7233110
11313.6100000	-22.5743120
11256.8590000	-53.9833490
11155.6500000	-17.1670230
11128.9580000	-12.5571770
11103.8490000	-28.8855990
11024.1320000	-3.1015937
11033.0310000	-58.6250940
10920.0320000	19.5842560
10944.5410000	-51.9715270
10846.5360000	-29.7309660
10761.1010000	15.3720260
10693.2500000	-20.4971440
10733.1810000	40.9324490
10705.7380000	-59.9911250
10649.4970000	46.9383440
10571.7020000	-6.4594982
10550.2080000	-19.3937710
10425.5450000	3.1609089
10397.1210000	46.7129560
10328.4470000	-21.0585080
10267.2530000	23.7689550
10188.6520000	50.7720260
10250.1410000	60.2869520
10212.2100000	27.9866990
10166.8160000	-16.2856000
10023.5680000	-60.0744100
10024.1350000	32.5258750
9952.3168000	-63.2658110
9917.9062000	-14.2300410
9866.8980000	-14.9741800
9799.4227000	14.6501250
9744.3773000	34.9776990
9740.4267000	-9.4749710
9722.6355000	6.5618677
9703.7247000	-59.2286350
9610.3445000	-36.1348950
9556.8110000	-54.0039940
9506.5029000	1.9397582
9412.1533000	61.8749010
9444.2639000	-41.7218420
9390.8000000	6.9930548
9381.8307000	57.9684460
9234.5677000	39.1332450
9212.8440000	48.4437970
9215.3002000	31.7326750
9210.3732000	-54.3867700
9094.0030000	-18.0495560
9040.6375000	-8.6300614
9001.4529000	51.1646760
8965.1250000	-17.5214450
8957.1096000	48.6211450
8920.4466000	52.7388110
8876.7235000	-37.3356520
8758.9158000	6.3148342
8745.5724000	-50.0555400
8727.8968000	51.5405580
8743.0178000	-48.2405360
8641.0248000	31.1283490
8597.0533000	46.7572850
8595.2841000	18.2787320
8491.1047000	53.7560850
