jMRUI Data Textfile

Filename: dataset14_WS.txt

PointsInDataset: 2048      
DatasetsInFile: 1         
SamplingInterval: 2.5E-1    
ZeroOrderPhase: 0E0       
BeginTime: 0E0       
TransmitterFrequency: 1.2322E8  
MagneticField: 2.9E0     
TypeOfNucleus: 0E0       
NameOfPatient: dataset14_WS
DateOfExperiment: 
Spectrometer: 
AdditionalInfo: dataset14_WS
SignalNames: dataset14_WS.txt;


Signal and FFT
sig(real)	sig(imag)	fft(real)	fft(imag)
Signal 1 out of 1 in file
230.8241200	-78.9147860
435.8930600	-190.5432200
307.9305600	-329.8578600
136.7783300	-357.7085200
-42.2093970	-358.5855100
-141.9648200	-249.9761400
-195.8648200	-157.2602500
-167.7708400	-48.1004610
-127.5674500	10.3932260
-43.4367080	40.6689340
-4.5740450	25.1514080
18.8856920	12.6127100
32.5624640	-44.0695450
-13.4269050	-51.7716130
-44.7666300	-93.3975790
-57.3453430	-67.4284420
-55.3631390	-45.9264150
-73.7731960	-42.8229640
-87.3899680	14.2338640
-76.8625330	18.8681240
-74.1827700	48.8781320
-54.9075310	43.9472310
-26.9761240	77.5327600
-4.6605300	63.4413730
38.7417160	57.5510720
35.5191990	32.2625850
39.9069080	8.0491142
38.3865710	-11.7543100
21.5235400	-47.6322250
-8.9126673	-18.3891400
-42.8260750	-3.0848929
-42.8918060	16.4862890
-38.2845240	46.7104830
-44.1715310	53.2652040
-1.9794015	91.1695570
47.5938550	56.9835610
58.0459230	62.8224270
63.6715960	36.3824160
83.5548030	8.9683735
74.7149770	-19.3904090
55.6875040	-29.4383980
56.3482010	-62.2752310
20.2906230	-68.5006870
24.9144270	-40.6417740
-24.1691650	-62.2707560
-16.2719950	-15.1890700
-38.2753290	-31.0622850
-9.6251041	14.4192720
-0.1257836	23.5594410
-8.7669383	0.0330135
-5.4776722	-0.5025939
19.9584850	-16.2152320
20.8595370	-37.8067380
-36.8306590	-24.7971130
-39.6058180	-24.6707080
-47.2216920	-1.5673013
-52.6778010	8.9634474
-47.4844950	47.8031450
-14.1617960	48.0740930
19.2065120	65.8827500
40.5435260	30.7459910
57.6595800	5.8135308
51.1608340	-24.0300080
31.9624190	-52.8266980
15.5049130	-76.1277200
-18.9364860	-57.1446670
-23.2085850	-56.8682230
-54.0649670	-36.8905400
-37.4732500	5.1604893
-30.1035310	26.3489650
-40.4724950	2.4491120
-26.5128040	16.9356810
-4.9126022	39.4297520
-6.3754739	3.9675588
-7.0420110	16.6970110
26.0111780	-1.3201074
26.5762140	-0.7053752
21.5205030	6.4052917
8.5010733	5.9656853
-6.8589675	-15.4375930
-40.0629030	17.8260970
-5.6744196	32.0894970
-15.3900380	27.3736910
-10.0998880	56.4152960
13.3013540	34.2850950
22.2927120	29.6456840
26.6559560	27.1303500
31.7927030	-17.3781820
45.8700540	-37.8555440
-3.3299320	-40.8412250
-22.2160720	-35.5169080
-14.2640500	-14.6724030
-48.4425790	11.3850810
-41.3797150	26.2637150
-11.7414240	47.4537370
15.9382530	22.0495710
29.5894210	40.8052270
36.4068410	-2.8231182
47.0474060	4.4913825
50.5492570	-10.8776720
36.3429340	-46.3339000
19.4155460	-47.8384580
-14.9244910	-51.4408120
-28.4115640	-53.0338100
-23.7971980	-50.7921460
-38.5343260	-22.8372050
-55.5170800	12.3781470
-51.2246720	27.3381600
-13.3091150	36.1927200
-23.8838050	28.7292670
21.1892660	42.7506890
2.9475611	14.3633540
33.7321600	3.2491824
29.3315310	-14.7308650
18.6615680	1.4887777
-20.1446780	-10.3738670
-9.7577436	-7.3130187
3.0994901	-9.9680145
5.4845835	10.6740710
-16.2862290	12.8202420
-5.4959401	15.5672200
36.9471530	-1.3090128
31.3259880	15.8077920
26.1476470	-9.9233625
10.8074390	-41.5190460
11.7352120	-27.3697390
-12.0651030	-10.3428560
-22.5517030	-8.4091866
-8.9462373	-8.8393120
-47.7265260	11.1020980
-12.5605630	-0.4880699
-17.9750280	7.8053894
-13.4667610	22.4877680
19.1317270	20.7176730
-3.6137767	41.3068730
1.5326872	23.3372300
33.0771270	33.2243400
29.0414070	-15.2583610
44.5716340	-6.6927798
12.8829070	-12.4225450
18.8035700	-44.8325290
0.3104892	-42.9177300
-25.5925560	-10.8239260
-28.4219860	-24.5052400
1.0157860	1.3581585
-25.1477970	-14.1093630
-5.6636182	19.4158830
18.9715430	1.8261751
2.4088335	-27.1514500
-5.7152925	-7.8100137
-28.9771140	-13.1243460
-33.2392130	-20.7195020
-17.1119760	6.6267797
-28.2702650	-7.0202670
-24.9636470	34.6122040
-10.4844420	15.2597050
-14.8131420	14.4985560
-0.6151940	36.6045300
37.0705520	4.2834265
9.6608892	28.8680170
11.7312300	-2.8391652
17.5518090	1.7941761
3.1955113	-35.3941280
-5.5371456	-40.6432970
1.4265137	-18.5069280
-7.7818493	-31.8865740
-30.9512800	3.2073166
-22.8386300	-0.0218588
-43.9227440	15.9463590
-13.8665050	19.5822310
-16.6165310	40.7381470
1.7331980	35.8543450
30.6700020	47.2377960
22.6344280	22.5734430
27.5486400	4.1742449
26.7470030	-12.0581160
37.5688690	10.0066970
2.5600351	5.4722136
30.0052900	4.1916692
28.4425290	15.3992340
30.3504180	9.7669151
9.4292589	-18.6133090
34.7510710	3.0351140
23.7209400	-18.2657910
21.6606750	-10.2555130
5.3992372	-12.3974730
-14.6241440	-25.5497470
9.4793941	-18.2714870
-10.4810800	-15.5619230
-26.6276300	-11.9520190
-25.7035850	-11.2479620
-35.8332590	-11.0669120
-44.8433260	2.7523642
-34.5940170	19.6165090
-8.8472940	27.6558080
11.2941610	5.3868329
11.4491490	12.2973890
-7.0225239	-5.7316854
12.3124880	-4.0798455
27.0201620	-3.2204717
-9.7680207	11.9230100
-9.8937799	10.8284300
-7.5547205	11.9909260
-22.2801240	-7.8890462
-17.0826280	-10.3855430
14.3890180	27.0760250
-3.4445832	-6.8494433
-0.6564285	18.6180860
12.2195360	1.1173239
-2.2528564	3.2457959
1.6356891	-4.3849648
3.5422944	7.6610795
-15.9614750	-10.5191330
-15.9887500	-2.5012453
3.4256557	-12.1485580
-9.6732596	23.6166120
-12.3587120	21.6501400
-5.0487806	38.0072540
1.4895026	19.6496860
8.4307294	17.2714750
13.1784630	-6.0535227
28.1829680	7.8208765
42.7726780	-23.2993960
34.2294960	-10.1854120
24.4939320	-15.4035670
-4.3382361	-31.6555760
3.4374164	-32.0155550
-27.7775580	-5.2087696
-30.6996520	-0.6227481
-12.0712190	2.2151286
-7.5774354	3.9467854
-19.3013730	24.0490700
-8.4423671	4.9511957
-9.2790347	-6.4113462
-1.8867714	-15.9027010
25.3167340	-2.8646415
3.0462633	-24.6533170
4.7483325	-14.0221990
15.4053390	-18.5492860
-3.6541887	-17.8252240
-2.3780545	9.7235109
16.4927390	-7.4987636
-14.0822080	15.5141510
-17.2755020	-3.7363388
3.1563546	9.4493471
-8.3877117	-17.4980900
-12.7539840	-1.6526681
10.1720190	-21.5867080
-27.6656760	-2.8652774
-7.6787540	-13.6312120
-25.7258550	3.6057164
-5.1075362	-13.6652790
-35.6722760	-9.3945539
-10.9758620	15.8227050
0.8460356	2.4850560
11.7975420	6.5349072
7.9117614	10.7085080
-4.2220959	28.0388090
23.6050020	15.4773930
-3.0310074	21.6650370
-2.5782612	-6.4500952
7.5849463	-18.6516320
-1.0307618	-11.3445500
-4.4485481	-19.0900250
-14.7118870	4.4933905
-8.7844088	15.6590240
11.0636900	5.9987929
-2.8758901	14.7627620
5.5874171	1.7448038
5.4712578	2.5068897
25.9104420	-2.7371670
-3.5745963	-1.8948795
23.0941460	3.0736175
-8.5634087	-12.5519620
5.8297055	-15.1705700
-19.2449120	-7.4783664
-16.1534970	0.6459206
2.0007284	-4.2358958
-20.1154220	18.2273410
13.9641190	6.7093015
16.0651240	16.3725490
18.0439880	-16.6463380
23.9813610	6.9669143
22.8233510	-20.7263980
-12.8197950	5.7243923
-9.6741051	-9.3701499
-9.7674910	-8.3196508
-27.1781990	-5.1392112
-7.1197879	-21.0737740
-17.6881830	3.4873591
-12.9096610	14.8958340
-16.2376300	8.3858625
-6.7503494	2.6140268
-15.6581610	2.2732160
19.0296960	14.7777600
2.4753926	11.5999780
13.7275540	-3.5317493
27.9530290	2.5071567
1.1907120	9.1174564
20.9825740	-26.2070400
16.6317810	-14.3980690
4.5455876	2.7132388
-0.3938702	-7.5162398
-19.7993140	4.6250729
-2.5474470	1.1294051
-19.8707120	-1.0821537
-9.7785631	-11.7621260
0.2609383	-11.7183070
-18.4479670	-8.0508677
-14.0603910	13.7978060
12.2166040	7.1443382
2.9278481	-10.1957120
-25.4521340	-7.0696512
5.3285744	-2.8336507
-8.6864066	13.4599390
-20.7151790	20.9288340
21.7949600	16.7773240
-4.0104448	21.0395650
14.9527550	-5.7026421
10.5069990	-9.2820801
34.8601120	10.4439280
0.5305533	-6.4126928
12.5118460	4.0354878
-7.0854875	-21.7332660
-13.1116820	-2.4556373
-6.2339339	-24.3830280
8.5507501	9.0973918
7.5292596	-23.0319720
-14.4164230	-1.4506114
-0.9771275	16.5654650
-10.8948150	10.9996920
6.0999922	-3.6778657
-9.1229171	5.8276420
8.1210877	17.6245570
-1.6937664	17.7934620
-16.7331750	-18.4188350
-19.2096570	0.0450600
-12.5429870	1.5633352
-9.2658445	13.5730370
2.0547855	-6.7978609
-18.1549040	-3.5578247
-2.7943832	-10.9744790
3.1718466	8.4669723
11.6535460	-15.3554890
10.0758750	-7.2685009
-7.2347545	-17.4964910
11.4222930	15.2856330
-10.9764950	-9.5109299
5.6001314	-0.8054537
8.1690172	-14.4962210
-16.2340220	28.4402890
-13.5391440	32.5986500
-17.8287740	9.7111222
6.3670685	1.4732355
6.4241812	31.5135160
6.9389727	27.0133480
28.1928070	0.2556682
20.0522440	2.3463880
16.9936660	-24.8466140
26.6682270	-26.2470730
14.7329050	-10.9237260
2.0351997	-28.7163930
5.8647784	-0.7693289
-16.2078610	-4.9120846
-6.6776876	-21.5773540
0.4064457	-2.6909592
6.8609738	5.7271763
-13.7843560	-7.9467370
6.8260716	4.8086127
1.2699234	-8.2241215
-0.5949841	3.3177755
6.8396828	-6.7113039
-13.3298040	-16.4222010
-11.7733790	-5.5234276
-14.1691100	10.3162250
-26.9438470	-9.6579306
-3.6135327	-6.6897106
-4.0242686	20.4391250
-0.5820383	4.9287345
-5.9875069	20.2504440
22.3814360	20.6263990
-2.6541744	-0.6279028
-4.6993828	-13.7925290
11.0240720	-21.1434610
-3.7892833	-7.1205462
14.7482200	-20.1558270
-6.6749064	-0.2583802
-0.0966880	-1.7710223
-25.1467010	9.9190093
-1.1821652	-8.6130121
-11.8208080	-10.0849380
-22.8916940	4.0576350
-14.1815620	14.8213120
-13.9365780	-2.5686270
0.1695983	21.3024700
26.6337910	19.3716940
-6.3579837	18.1521720
-9.3180856	-21.6598670
-4.0203282	-13.8570840
9.3108914	13.3074740
-8.9952933	-11.3247220
10.5375400	-19.5734810
1.5363586	-11.2883670
15.1248900	22.9306380
-17.4355870	7.1878318
18.7316910	-10.4285020
-8.3288803	15.2903750
10.0451330	3.3009668
-14.8624070	-24.8255360
17.7883310	-23.5806250
7.3250078	-15.0916470
-10.7273990	-2.5187691
11.8297430	-14.8634640
-3.0628131	14.3980260
1.6844534	10.4363290
-10.4598000	22.8551880
-0.2788996	25.2780280
-6.4256598	-1.9758371
14.2847760	-3.1214609
17.3663300	1.8972029
-1.3905740	-16.6470460
-0.7092376	16.2162990
13.1917910	4.4693979
15.0502840	-1.2700563
-1.7429596	9.4814190
-4.6474700	-3.9800138
