jMRUI Data Textfile

Filename: dataset6_WS.txt

PointsInDataset: 2048      
DatasetsInFile: 1         
SamplingInterval: 2.5E-1    
ZeroOrderPhase: 0E0       
BeginTime: 0E0       
TransmitterFrequency: 1.2322E8  
MagneticField: 2.9E0     
TypeOfNucleus: 0E0       
NameOfPatient: dataset6_WS
DateOfExperiment: 
Spectrometer: 
AdditionalInfo: dataset6_WS
SignalNames: dataset6_WS.txt;


Signal and FFT
sig(real)	sig(imag)	fft(real)	fft(imag)
Signal 1 out of 1 in file
264.9236200	-101.5975800
473.1696100	-211.9875000
323.0074400	-362.8420800
131.3509800	-431.7471700
-52.3027100	-388.5595200
-174.3623800	-280.4245400
-225.8341100	-144.3952600
-198.5475300	-20.8081650
-122.8612600	51.4573450
-46.4132120	78.1463200
26.4133200	47.0002050
53.7981470	-4.0271765
47.2920750	-54.1659760
13.0340450	-81.2018060
-21.4823450	-88.8780770
-57.1204480	-72.4085880
-75.3653090	-49.6651250
-83.3463830	-32.3974540
-88.0282650	-9.8094412
-81.4176350	19.9657510
-79.4241920	38.8223960
-59.6717540	58.4229740
-33.6930590	75.8376870
-8.8239885	77.5485810
22.4539940	71.9018530
42.7418710	37.8861090
50.4166320	7.4952622
37.3166420	-22.8101670
10.1764850	-42.9528350
-25.1292220	-42.1211040
-55.2367780	-24.2779240
-61.6453980	11.5537530
-51.9958810	47.2588180
-34.6647530	71.6041250
8.1882665	83.8457480
39.3224660	80.7151500
67.1736020	58.2656320
79.5788940	30.0694340
78.2571540	1.7754001
77.2909780	-18.3535690
64.6078030	-40.3104190
47.0056470	-55.2403520
28.3226620	-62.4134190
7.4746357	-59.7503490
-9.4950201	-45.7161490
-26.3335460	-32.9737470
-30.7061650	-18.0396210
-21.6795680	-1.6642560
-5.9345769	7.8255162
8.6256679	6.8310197
17.2986470	-3.7873221
18.4094460	-31.0363640
1.9602120	-46.0419830
-15.4672710	-49.6740000
-45.7562310	-41.8519960
-59.7825920	-7.0330147
-62.9605030	19.6669030
-45.3125290	47.3567550
-9.9657563	71.0908520
30.1247640	59.8993880
58.9515920	40.1483900
67.2924410	2.0078372
64.0237300	-32.8795930
33.7377200	-56.4890190
0.1741119	-67.3554280
-26.9458530	-56.1506730
-42.1511720	-46.5220460
-56.2712330	-20.8053890
-47.4615400	1.4609919
-46.6796580	22.4618050
-29.7475120	28.7331720
-17.6935620	33.8546610
-2.6291013	31.0397980
7.6051853	24.7409030
12.2069930	18.1774260
17.2487330	15.8366700
20.6789820	-0.2978165
10.2189770	-4.9116020
1.3824011	-15.9779420
-13.7448790	-10.9946200
-30.9670400	-2.8998486
-31.5957250	15.5212230
-20.4411110	36.3363340
-7.4481141	48.3532010
18.0429830	48.2880640
36.6647000	35.4547940
47.1913280	10.2214210
53.0324410	-10.4430320
29.4342430	-39.2321290
13.3241140	-48.9446820
-12.1249200	-42.9784130
-37.1489760	-21.8620490
-43.6363260	0.3748333
-26.0714500	26.2863260
-8.2484726	42.8984440
15.8941060	45.2246790
29.1292910	28.7952730
44.0187220	17.4945670
52.5690740	-13.2011450
47.4882490	-27.2350210
32.6159390	-43.8911820
9.9425110	-51.5706450
-5.9359408	-48.7462990
-25.2792900	-40.2948910
-41.9839330	-31.6666160
-47.0048440	-15.8486010
-48.7608790	2.3556997
-35.9177780	21.6133750
-23.4657460	30.9485750
-13.1188800	35.4459150
11.5047120	33.7311950
24.0146590	24.7605070
23.4375030	7.4045492
23.8447750	-4.5143712
7.2790525	-19.8583600
-7.1762479	-18.5227030
-16.8653070	-8.9855359
-23.7264040	1.1798981
-12.4126370	17.7639760
-0.7830106	23.3213980
10.6526990	24.1158230
19.8453130	22.0069610
35.6831020	7.8998877
33.1388260	-14.1958070
15.2041170	-26.8111840
3.1970140	-33.6519760
-11.0409960	-30.3081150
-20.8723850	-26.9490750
-26.2134640	-8.1012410
-35.5526110	0.1096194
-28.3100060	12.7338800
-21.3677770	27.4309650
-7.6073019	30.0631890
0.1573885	30.1411120
14.7590290	29.8303420
27.5688410	18.7993970
25.6353310	7.1311904
33.6857110	-4.0249517
27.7193690	-17.2327110
20.6308450	-21.5618470
11.2863390	-28.0375190
-3.3444068	-28.4659260
-10.2526820	-17.7194040
-17.7000220	-6.1766003
-7.4060819	-0.2958684
-8.6447465	-0.8643655
1.4156671	2.9833375
6.6612961	1.1676118
8.7592338	-9.1756150
4.1758197	-11.3241430
-6.3261941	-21.5271670
-21.2181990	-16.7308350
-24.7129320	-11.5019220
-25.0824720	5.7409115
-24.0832570	14.2376170
-18.1874740	28.4720880
-3.7514635	32.0592740
4.8810011	25.0869080
18.8866520	22.5789960
24.3157150	5.6882556
23.6317170	-0.5982174
25.7256990	-9.2778788
12.0601450	-25.9797160
3.3762638	-21.2104090
-17.0127300	-18.6948870
-24.3996760	-16.5074200
-27.0459620	-0.8932413
-32.3148470	9.8337110
-21.5642560	17.5778340
-18.9153050	25.4386670
-7.1769019	35.1641350
8.7547624	26.1318470
16.6294300	27.4632780
22.6640810	11.2542850
25.8631330	6.6472042
21.6781930	-2.4467135
10.0286050	1.8043352
14.4611330	0.7362728
10.1874890	4.2603480
6.2975002	4.2660556
13.0957900	6.1749797
17.2764020	-1.2837380
15.3213470	-9.1463781
22.6211920	-8.9737180
20.2327900	-16.6480800
7.2888404	-21.0914740
5.1777672	-30.5551330
-8.4804237	-25.2953210
-11.3940840	-23.8073330
-17.3537310	-14.8463210
-25.1856120	-10.2584510
-27.1633950	-3.2045366
-19.8420360	5.7925816
-16.2603340	10.3610780
-5.8398168	18.0638780
2.3881432	19.0972990
4.1141339	7.9829170
10.6526540	8.3020886
11.7205750	-2.1629866
7.2578147	-1.0060787
-0.5390469	-9.9607580
-0.8789391	-7.3879622
-8.3766055	-3.0464495
-9.2382055	-4.2814742
-3.7286421	4.9109892
-8.8240538	6.0706622
-1.9418627	10.3741770
6.5480717	4.1502442
2.8803896	-0.0579234
11.7972510	2.8872403
1.1287942	-8.0780015
4.2289304	-2.3991291
-2.8775750	-10.0021310
-6.6817292	-1.8619728
-7.1909594	-1.7791533
-12.3737370	9.3341365
-3.3589711	11.9496280
1.7389507	15.9560270
3.5721160	16.2655160
7.6092264	18.6949180
16.7980710	9.0984504
20.6411350	0.6605475
23.9050380	-9.1511754
14.4155820	-14.6580100
8.1584518	-13.7213530
6.3756814	-13.3672810
-0.2076702	-20.7091940
-11.9626310	-9.9199483
-12.5132590	-9.4152081
-15.3296100	-5.2424997
-11.6347260	2.9268393
-6.5173920	7.6297995
1.2727030	12.0762450
4.6786461	1.5270720
4.1634776	6.5634189
3.2623008	-0.9724087
4.6710162	-2.2034464
-0.4161836	-11.2812760
2.3818243	-11.2991360
-0.5026221	-10.0353290
-1.2592227	1.6421539
-8.3872733	-3.0690552
-1.9578231	2.4122873
-1.4096789	4.1224163
-4.5915059	-0.6375473
-2.0059729	0.2310931
2.1822531	-9.2881174
1.7142652	-5.0177187
-7.9431980	-5.8487745
-4.4297877	-2.6725434
-11.3539350	-4.9831073
-14.7320280	-3.2690963
-11.9382450	3.0861135
-7.7746194	13.2272370
-7.8449697	17.9392500
-5.5671992	16.7088010
8.5884455	8.6009290
10.3368360	13.6279700
7.9341294	8.9283291
9.3178854	-2.7938150
4.5148144	-3.8414000
-0.5530017	-2.9684991
-3.1688881	-8.4201643
-5.9994385	0.7766183
-4.4743002	-3.1089649
-7.1013592	-0.8358905
0.0956225	4.7154111
-2.2122266	0.5058059
6.1920696	6.1546891
7.2840932	3.6829913
5.0314803	-6.2349996
9.5631434	-4.2536079
6.1265868	-10.9329710
1.1939923	-9.1596493
-6.4657110	-3.5434917
-0.8155229	-4.5971709
-7.1009458	0.0875160
-4.1558994	-3.6961112
-2.4183241	6.7093458
1.6119426	6.0039131
-0.9754206	2.6026598
2.9062453	0.8909991
5.2466073	3.9195386
5.6694372	-2.4219022
5.9297056	-7.2659564
-0.2303699	-9.5437758
-6.3379314	-6.4021534
-3.7566729	-4.9681185
-4.7127615	-1.5211558
-13.3200010	-0.4342319
-6.5814956	8.8906165
-9.5177196	12.0069080
-6.6385044	6.7430359
6.1444010	11.4761510
-0.3167102	8.4946179
9.3123318	-0.5524665
10.7737900	1.8222537
1.3701346	-3.3868757
5.1679753	-1.6192010
-1.6294232	-1.5762531
1.8494956	-1.3182959
-3.6343558	-0.9868531
-7.8331966	1.0703737
-0.2676681	-0.9931698
0.6961514	5.5913251
1.6548863	4.9001738
-5.5783393	3.1862625
4.2859634	-1.6340864
4.9370959	4.0033694
-2.7808651	-3.1697986
-2.1146870	-3.1031277
1.9180781	0.6814864
-2.5398454	-0.3594857
-0.0593067	-2.0909154
-6.3526778	3.9789689
-0.1697608	8.3141875
3.5395260	3.5031086
6.3277584	4.9752307
8.8560122	2.8120670
9.8903779	2.9957043
3.1249981	-1.0765930
0.6063249	-4.3065227
7.0037495	-7.7475811
1.6068847	-8.3356952
-2.7660516	-0.4936886
0.7899181	-1.8864294
1.1310190	-1.5695333
-4.7852574	-3.2450211
2.1931107	4.1178243
2.1769236	1.5428335
-3.5521833	-4.2400796
-0.7139577	2.2017994
0.8293251	-1.4963061
-4.9547742	3.3062220
0.2176439	-5.8741448
-0.5548800	-1.4527148
-0.7711096	-5.2003245
2.4171560	-0.5597059
-4.6224770	-2.9624269
2.0957368	5.3226048
2.9118962	4.9121547
4.1433613	3.9826803
-1.1842489	2.9480734
-1.7629909	1.7190565
6.3196746	-0.6778139
-1.6315488	-4.8504659
1.5561603	-3.0208745
2.4998032	-5.2008620
-2.8515867	3.8369787
-3.9617272	1.2821923
-3.6054194	-1.1419306
-0.4852805	2.9804645
4.1422885	8.4579284
0.8232837	1.6342672
5.7442741	4.6610318
9.1439981	7.7166941
9.3803228	5.9051351
9.5682897	-0.9577833
2.3472671	-0.0616532
1.0465401	-7.7190479
-0.9237125	-4.9440394
-3.7032107	-1.9986959
-0.9235058	-7.2295062
-4.9772062	-1.6185034
3.9150065	1.1955005
1.2498935	-2.4940479
1.8239771	0.5581810
3.5411946	-4.5990330
4.6215237	-2.1174508
-1.8038640	2.2390726
-2.4959912	-5.4836199
0.5816251	-2.4834632
1.8628851	-5.1481284
-2.6592448	-1.5526717
-5.9365536	-2.1080618
-6.0100796	0.3945849
-5.8997727	0.3905744
-1.1209153	3.0583316
-3.0492980	5.0982644
4.2516829	4.6090462
7.8529343	-1.9388863
5.6489266	-0.6497462
0.1262385	-5.1764188
0.0499772	2.4154577
-2.4078110	-2.2071698
-1.9431117	-0.7196646
1.7101417	-2.2705186
-2.3046394	-5.0580366
-4.2691525	4.3886760
-0.5921578	-3.1775802
-0.6411742	0.6150528
0.1395689	4.6435549
4.4506245	-1.4481109
1.7624550	6.1052519
-2.9061169	-2.9852859
2.2592574	2.5036019
5.8940777	-1.1628223
-2.7782896	3.0505028
-0.7730906	-5.1770359
2.6005536	-4.1781349
3.5641794	2.1857789
0.9902528	-3.5474066
-2.4462046	-3.9675770
3.8594774	-0.2969190
1.1552262	-0.2775946
-0.5754158	-2.1992178
-1.2404959	3.2818077
4.4462505	3.6277846
4.0222227	-1.6816526
2.7545987	-5.8446665
-3.7117946	-5.8041880
0.3321827	-1.5093098
3.0319207	2.9565629
-1.6995290	3.5997077
1.1469200	-0.6368239
-2.2014443	1.1705492
-3.3071250	1.2245922
0.3300969	-0.8816841
-2.9171273	3.1213021
1.9803300	-2.9119684
2.5368717	-1.5310209
1.5988567	-2.2283661
-3.2000758	0.3492323
-0.8688259	1.4108463
0.6662599	-0.8262617
-4.3312230	-1.7062181
3.1592312	-1.2047874
-3.1861492	-3.1270457
3.4572262	2.0999253
2.1768954	-4.3139978
-2.3873295	2.7691089
0.3470680	1.7844947
3.1166783	-0.8347298
-0.0879231	2.6507523
0.4050115	2.0668166
-1.9126999	2.6547638
