jMRUI Data Textfile

Filename: dataset2_WS.txt

PointsInDataset: 2048      
DatasetsInFile: 1         
SamplingInterval: 2.5E-1    
ZeroOrderPhase: 0E0       
BeginTime: 0E0       
TransmitterFrequency: 1.2322E8  
MagneticField: 2.9E0     
TypeOfNucleus: 0E0       
NameOfPatient: dataset2_WS
DateOfExperiment: 
Spectrometer: 
AdditionalInfo: dataset2_WS
SignalNames: dataset2_WS.txt;


Signal and FFT
sig(real)	sig(imag)	fft(real)	fft(imag)
Signal 1 out of 1 in file
266.7095700	-109.1366500
469.0479900	-212.6470300
320.4196200	-364.7502400
133.5414800	-421.3094400
-45.4455940	-380.5499200
-173.9721100	-277.3117800
-213.2505100	-137.3012100
-188.0349000	-17.9840080
-118.3942100	49.2138750
-44.3294110	74.3979130
23.6275570	45.1039590
49.0341380	-3.9121171
45.4353080	-49.0901360
13.5510550	-81.0678480
-24.1716660	-80.3299260
-56.1631190	-73.4947420
-69.1437050	-51.9502780
-84.6368740	-23.5216290
-80.6174760	-4.0190531
-81.2626760	17.1051510
-74.8056080	38.5181080
-56.5826770	57.6240800
-29.9040670	71.2319870
-3.7727854	68.5794550
24.8266370	62.8799400
40.9758990	34.0830890
46.8279610	7.9657792
40.2011840	-18.8285730
9.2806747	-40.1274310
-17.9590090	-40.1005200
-45.8305390	-19.8657890
-55.6416530	10.4385920
-49.1420990	40.3125060
-30.9720460	69.3068710
3.7806171	77.7906630
33.7582010	69.8993550
51.3841160	48.7268250
70.0053960	25.1577990
66.8385850	1.7984249
63.0970310	-14.6869880
50.9578590	-35.9182490
34.9415890	-42.8876330
22.5995950	-50.9405940
8.3030392	-46.3972670
-9.0497370	-45.1674440
-17.0538510	-29.1557680
-24.7954210	-11.4802680
-14.4394070	-3.7475229
-3.3064833	10.2657580
10.9520450	5.9495942
20.7404830	-5.5235410
12.0724390	-24.5115400
5.2814224	-40.1849430
-14.2299430	-39.8110380
-37.7636900	-35.0231660
-50.8114520	-10.1605560
-48.9457610	20.9973350
-30.6046160	42.8783320
-6.8495254	51.7442040
22.7215500	48.8009170
45.6857720	27.7752270
55.0248280	5.5776210
50.7398720	-29.7621690
28.4451730	-48.8766360
-0.5864172	-56.1509670
-24.7266390	-48.4593170
-37.2095520	-28.6601730
-41.6283350	-15.1769710
-44.3669700	0.0791571
-28.3650380	12.4527080
-21.2111940	17.5360370
-9.5818544	24.2677300
-2.8418159	25.1282510
4.4814679	17.1702020
9.5954370	17.0860390
13.5605520	9.9597389
9.2511146	-3.0865932
3.8712035	-8.3852638
-3.9874283	-11.4320390
-10.0948220	-7.8660216
-21.4735930	1.2735442
-28.0758400	10.2462680
-21.0615220	28.0810260
-4.3518042	32.4303820
8.6275380	33.4682390
32.9687000	30.1506250
36.6500910	13.5566850
33.6129830	-13.4744730
28.3521710	-22.9581370
3.8228744	-37.2675420
-15.2459620	-32.2049350
-22.3942890	-13.5496850
-33.4122770	-1.1143939
-22.7200380	17.0844500
-5.5196387	26.0131130
9.2947784	34.3027110
26.2216390	21.7227030
34.9656910	11.9281570
35.5839970	-4.3242944
31.7310640	-25.2960970
24.8203000	-28.4289710
3.7736804	-34.9573650
-9.1722121	-38.1753270
-20.4390110	-29.9779810
-29.5728040	-26.0966300
-31.1615490	-13.3615640
-30.8032260	-1.3885980
-31.7761900	18.4709640
-20.8634440	19.6947360
-4.1145724	25.5818770
7.0588016	24.2303420
10.9491510	12.1601120
19.3039200	7.3691512
9.7855846	-5.0313206
1.7614679	-10.9190030
-2.3336861	-10.7673880
-11.5566820	-7.0694739
-12.1435730	0.5939188
-8.9474223	11.6538320
-1.7401101	21.5032240
5.7416140	19.3025860
15.2815580	15.5511690
22.7292060	-0.5579329
19.0087670	-11.3132100
9.9946607	-19.4831860
0.2708981	-25.2187480
-3.4267729	-23.2179450
-13.0310520	-19.9712110
-20.0117070	-10.0548120
-21.2805650	0.6254897
-19.7972550	10.8692260
-13.0241930	15.5946510
-3.0060929	21.3605800
2.9144043	25.1741320
10.3921960	22.5070040
14.7345770	19.5706090
19.0609250	6.6137196
26.9763660	-4.2602032
16.1671170	-10.7129440
17.8224730	-16.3110790
4.0093503	-20.7490570
0.0247985	-19.3374110
-10.7993640	-10.6824970
-12.2986040	-9.6281759
-8.9510975	1.8484002
-3.8734490	4.0635620
4.0921951	0.9760462
2.0730171	-3.1947868
0.9057926	-2.5069976
-0.0560144	-7.0240934
-8.8923635	-13.8850080
-15.6995400	-11.4744870
-17.4506920	-2.2195759
-22.8135100	4.6226285
-13.8582660	7.9193355
-13.9413560	14.4645780
-3.4173308	22.0263820
2.5506550	23.6526150
12.2251400	15.7204070
18.1668850	7.8551803
14.7981340	0.6357743
15.8292560	-7.5278424
11.0660220	-15.5319560
3.2416049	-18.3853040
-9.2983067	-13.1913520
-12.9459740	-13.3273470
-24.0995540	-6.3814718
-21.5921380	7.2306290
-16.1638950	12.4028210
-7.3046321	20.9752150
-6.1583739	24.1335780
4.7781237	23.3462090
13.0454500	14.6296910
13.7244050	6.9110155
16.2234880	6.2576852
13.8992990	2.1666816
7.0672224	-3.6305592
5.6817019	1.5790050
6.9316022	3.2979254
5.2436181	2.9374449
8.8738788	-1.4947507
12.3218390	1.5791113
16.6318680	-6.9353819
10.4618230	-11.0356410
15.0991780	-15.0705420
10.0366590	-18.8690710
4.2456481	-15.0954250
-6.6947477	-15.2655700
-11.7140580	-17.7175420
-13.2014840	-15.8289950
-15.2405350	-5.6892104
-17.5036000	-3.6155614
-15.8265670	4.0189120
-12.2692570	12.5497370
-5.7485761	14.2102760
4.2684319	13.1550530
4.3417542	12.7334410
9.8566453	1.5335292
4.9126519	2.9069444
4.4198433	-2.0303904
2.7245319	-2.7613018
-4.6436857	-2.0424070
-6.7489135	-6.0877747
-7.0734562	-3.4006468
-9.8401486	3.8115500
-1.2735463	5.8676404
3.8793732	10.4553470
4.6165318	4.5845081
4.6608999	1.3400432
1.0485931	1.0271282
-0.0220144	-7.6318464
-3.6423661	-5.3802194
-4.2035103	-4.3014188
-8.2830146	-5.0192501
-9.2722539	2.0004506
-6.6954376	7.8670688
-8.4173021	12.0519910
-2.7369228	10.5768070
4.2922482	13.1637190
8.5264856	11.5886810
9.0425333	6.3594452
14.3725440	4.9728556
17.3199930	0.4865956
11.9182090	-12.5869320
7.7468223	-14.3549960
-0.9169164	-10.6208010
-4.3655064	-10.8325430
-6.2789017	-5.6731549
-8.5043931	-3.8575677
-5.9716321	2.1226796
-8.6408281	1.5954353
-4.4048930	3.2706082
1.3003219	8.8773711
0.1490769	2.4284202
0.9975339	0.5908822
2.1324017	-1.0315656
2.0687941	-2.7893387
5.0255884	-3.0904548
-2.1054290	-4.8241629
1.3610154	-2.0142046
0.3598882	-3.9355846
0.3562746	-1.1680777
-0.1226354	1.1196429
0.7142949	-3.2899659
-2.5037489	1.4918552
1.9761781	-2.4338043
-4.1252867	-6.3697009
-3.2358595	-1.8359718
-3.7840420	-9.5209028
-9.1443945	-1.6198853
-9.4772368	-2.2862184
-14.2370010	-3.1469401
-10.1480750	4.9810229
-12.2996500	11.6316290
-3.2610361	12.5162830
-3.3237039	8.2806847
2.5680925	12.2803760
6.9401319	4.9976937
10.7481390	3.5100745
4.4402111	-0.8018818
8.5530123	-2.3278703
3.8137227	-0.6156957
2.6461071	-8.1885807
-0.9245848	0.9585975
-3.8367113	3.5774931
-5.0996354	-1.4030969
0.9295026	1.5564455
0.1803297	5.5192750
5.4332711	4.6327208
4.9842131	3.6763541
2.3810886	-1.0796689
8.6531848	-0.2645178
3.6352353	-4.2008174
1.1642172	-7.3244089
1.6765946	-9.0072947
-1.9294212	-6.5713578
-7.3532387	-4.3634117
-7.7558860	-1.1468721
-3.9902444	4.6828725
3.0464381	4.1895837
-1.5852887	7.1503611
6.2131079	0.3845361
9.3403098	-0.5660137
7.3008993	0.9760152
4.0038760	-5.5515253
1.6983644	-10.2569760
-5.8545101	-8.9161613
-7.1247689	-8.3169258
-6.7539863	-5.3089414
-7.0677266	3.2335369
-6.2719545	3.2878283
-9.4984855	8.6569911
0.6798981	12.6466390
5.4780727	7.7281075
1.8538344	8.2707556
4.9560884	4.7677174
6.9450430	-1.0191895
9.5902895	-1.2786686
8.2930219	-0.9916592
1.2803185	-1.6172275
1.9150951	-2.1148152
-0.6968059	-0.6841697
-1.1829632	-0.4708590
-1.7625994	2.9555560
-4.7716365	4.0425150
-2.9623683	-2.4534070
-2.3723898	4.9543272
-2.9371112	4.5300048
-3.3255675	1.9024294
-4.5023574	-4.6796403
-2.4955006	-3.3313234
0.6177765	-2.5138123
-2.9428169	2.2107142
-1.1492596	3.8026648
-3.7011827	7.3306793
-2.8821628	8.6584502
-2.9401540	8.9697109
6.1470979	4.4171851
3.0452884	7.1296656
3.6156813	3.8639791
4.0207909	1.4280615
2.6465278	-0.8024322
3.7368057	-3.7870182
1.7273159	-2.1229321
-4.4554187	-7.8735355
0.7289596	-0.5913445
-0.7873928	-0.4043620
-5.5267618	1.6859243
0.8342578	1.5813381
-1.8366800	2.2252614
1.5552693	-3.5720829
-1.7189162	3.1814185
2.2595723	0.1509481
1.6179805	-4.3165594
-0.6633868	0.2022767
-0.9275491	-1.0694149
-0.3242207	-1.8977364
-4.0569351	-2.6012372
1.2137956	2.7375598
1.8877945	1.4563609
-1.1296592	3.3169241
-1.8405938	7.1363167
-1.1795143	5.1581122
2.6391743	-1.2536564
-2.2057041	-0.7314342
-1.0352260	-4.1423396
-3.8518734	-0.0138922
-1.0823561	-6.1373544
-1.3951221	3.1133471
-6.9419645	0.2163369
-6.2529118	2.3216946
-6.4816993	6.4483641
-0.5445071	3.1034266
4.3926841	10.4904020
1.6340075	5.3538004
8.7868604	5.6260130
9.2057631	4.3596926
6.9702208	3.2980848
5.1751991	1.2971178
5.1456418	-1.8730982
1.2539255	-4.4546290
-2.7119923	-1.6621096
1.3871857	-6.7301163
-0.9878460	-5.9133756
-2.7792345	-3.5501250
2.8473117	-1.1378807
-2.3532921	-3.9000902
2.1634123	-3.5785304
-1.1065263	-1.8236513
-2.1971249	0.9441196
-4.4969044	-2.9350129
-1.2116224	-2.0577614
-3.5607469	-1.9520637
-2.5988463	3.0688597
-8.3743552	4.5059516
-5.7275761	6.3342490
-2.8687774	1.6679716
-1.5988103	5.2959309
-1.5680346	1.6339692
5.6875662	6.3599471
3.4740644	0.2869436
9.4157362	-2.2311647
8.8977629	-5.0157456
4.1114788	-5.3120265
4.2480680	-7.3992519
2.3116374	-1.0656955
-5.1802890	0.1292178
-0.8735594	-0.1844961
-0.8494826	1.7257479
-4.6185899	-0.2384945
-3.6859622	6.8457209
-4.0338765	1.3784056
4.3175574	4.6084743
0.6426899	-1.2979121
2.8975315	-2.6961826
2.0459412	-3.2000321
-0.5550654	-4.3815791
-1.5543388	-5.8199245
-1.5505944	-0.6792735
1.3451046	-1.9091845
2.6558068	-4.5886787
-1.4718973	-2.1950218
0.5397302	4.4342589
-3.1433004	0.1973790
0.3461948	-0.0903983
3.9649829	0.1185489
4.0850644	-1.2055871
3.2050664	-2.5540107
4.4557579	-5.2667427
2.7151545	-5.9701106
-0.8018702	-1.1623435
-4.7952545	0.6733572
-3.9584354	3.1900452
-4.1012745	-0.0774597
-1.1139512	-1.8471344
2.8339399	-2.0918533
2.6263160	4.9857155
-2.4593539	2.4075223
-1.7381551	4.1549618
0.1970721	0.3969464
4.2886756	2.1548835
2.5256276	-0.3845152
3.7079631	-2.1923797
1.6053091	-2.6147688
-2.2028884	-1.7299202
-4.1078184	-1.4951931
-0.9039609	-3.7036031
-0.3983131	-1.4807854
-4.3693557	0.5836990
0.4476911	3.1897018
-3.4492516	0.0287543
-1.4210778	1.0471445
0.1366504	3.3032747
-0.3379756	-3.3276135
-4.5490030	-1.2062154
-0.2649831	-2.0595609
-0.8534157	1.9765002
