jMRUI Data Textfile

Filename: dataset9_nWS.txt

PointsInDataset: 2048      
DatasetsInFile: 1         
SamplingInterval: 2.5E-1    
ZeroOrderPhase: 0E0       
BeginTime: 0E0       
TransmitterFrequency: 1.2322E8  
MagneticField: 2.9E0     
TypeOfNucleus: 0E0       
NameOfPatient: dataset9_nWS
DateOfExperiment: 
Spectrometer: 
AdditionalInfo: dataset9_nWS
SignalNames: dataset9_nWS.txt;


Signal and FFT
sig(real)	sig(imag)	fft(real)	fft(imag)
Signal 1 out of 1 in file
48737.0240000	20.8368690
48518.9830000	16.1447030
48293.7590000	-12.1851720
48070.9390000	-9.0276153
47835.0470000	16.5917950
47586.9660000	-22.2246460
47385.8310000	-5.1907378
47155.5780000	9.3485812
46934.8820000	-5.1007725
46727.8680000	9.2919555
46478.0590000	-17.1665480
46258.3510000	-23.1601040
46086.0580000	15.7582510
45856.0580000	-6.3566637
45617.9320000	10.9974390
45417.5460000	-14.2474200
45191.4870000	-18.7276280
44977.6870000	0.4102675
44785.0630000	16.2802030
44584.1950000	-0.1946185
44358.0670000	9.3079591
44145.0180000	7.7553609
43961.0430000	-18.9095630
43739.8120000	0.8595699
43526.0650000	-11.8446650
43324.2640000	8.8867079
43121.5680000	22.2027610
42898.5650000	4.8441265
42717.2380000	-21.3228280
42531.0340000	-23.1235000
42338.1940000	7.3617621
42109.9910000	-3.0386837
41909.6270000	-7.1403847
41724.4880000	13.2289170
41521.3280000	8.2388528
41328.0870000	-9.4161938
41160.2900000	9.7984107
40933.7160000	1.9031847
40735.0540000	7.0845943
40550.0500000	8.7201899
40354.9230000	21.7739390
40197.3680000	-10.1965370
40004.2510000	3.3581724
39794.8770000	10.5545470
39598.1630000	-21.8715320
39442.1500000	-12.4612790
39261.5120000	-21.1160860
39047.5500000	-16.1028570
38874.1560000	7.1144545
38691.7360000	-12.9793580
38518.6670000	-17.2312320
38338.7220000	6.3495826
38169.3840000	12.3085860
37975.4030000	-14.6595050
37795.0000000	-0.8141858
37628.9560000	-16.7843970
37438.1790000	-14.9264190
37276.3380000	12.0212930
37096.6870000	-5.7504011
36915.9700000	-14.2060240
36749.1190000	20.4680680
36571.1570000	-14.8746960
36413.0450000	-7.3772351
36244.5850000	17.0268400
36061.6440000	17.8731780
35863.8480000	-18.7338380
35719.7840000	14.5745110
35534.2320000	8.5451653
35389.4140000	22.3482770
35199.9640000	-2.8137095
35024.3660000	-16.7673140
34878.1110000	15.9801280
34721.6300000	3.3874958
34548.1370000	16.9466830
34381.5250000	-3.3222003
34230.8440000	9.8286262
34059.8540000	-19.5689310
33899.8130000	-8.5133827
33759.3420000	-16.3527590
33609.7450000	13.6110410
33413.4130000	-12.0355110
33290.1800000	-4.7163766
33109.0790000	21.0893920
32947.9960000	-4.2673216
32786.8670000	0.3542558
32660.3670000	14.9766840
32510.2020000	-13.6736230
32332.6600000	11.3444670
32219.4630000	16.2184480
32024.0330000	-12.0070480
31877.0340000	20.6120390
31765.2000000	11.5692330
31595.3880000	-9.8281770
31432.6000000	-19.3157650
31278.2100000	17.3753860
31170.4760000	-1.9204430
31010.9510000	5.7711161
30866.4770000	-6.3935180
30698.6250000	-21.6681510
30579.0490000	-16.3729920
30412.2560000	8.1122415
30298.0120000	-12.4317320
30162.5850000	-9.7204486
30015.1140000	-6.7157464
29853.9620000	18.1790070
29721.5570000	-2.8851339
29563.7740000	8.3641642
29458.9110000	-14.7654930
29282.4550000	-4.1264712
29183.7760000	16.9110900
29006.7960000	-13.2604050
28901.8440000	4.0915083
28752.4090000	-13.6647010
28622.2320000	23.1992070
28498.7610000	12.7791120
28364.4850000	-1.7778376
28195.7310000	-20.1906960
28068.1750000	17.8388950
27956.5130000	11.9531640
27815.6350000	5.7255599
27685.7980000	-5.3047023
27577.5410000	22.5466910
27408.9720000	10.8444820
27292.3040000	19.2466810
27178.2450000	7.8500562
27043.8410000	-11.3591970
26904.8220000	-13.1315760
26776.0330000	-13.1100930
26650.2060000	14.4660370
26554.5630000	-9.6968234
26409.5700000	-16.7130460
26268.3020000	2.0768994
26176.1490000	3.9649034
26030.6840000	-16.3886590
25938.6840000	12.3207130
25782.1500000	-11.1295770
25683.7320000	-11.4135750
25554.7190000	8.6100122
25447.5560000	-13.7359230
25310.0470000	13.3641730
25214.0760000	5.7097806
25079.4590000	-22.6314510
24940.0540000	7.3803876
24862.9040000	-2.1253778
24708.7430000	11.0199010
24619.0670000	-23.2528210
24491.2580000	8.1354472
24373.8630000	11.7930090
24282.6130000	2.6739739
24160.8310000	16.4741590
24020.5230000	22.7649370
23928.0210000	13.6467080
23822.5680000	22.3266300
23718.7890000	-9.4989549
23592.3560000	15.9240670
23460.1880000	17.8552200
23370.5190000	-18.9660340
23262.1980000	-16.0647530
23157.3240000	11.1873220
23048.7930000	22.3144320
22949.7280000	5.0687192
22841.7340000	-17.2448490
22698.7530000	14.2496410
22605.6370000	10.0588700
22484.8690000	-7.4259954
22405.8590000	8.0021778
22303.3910000	-19.7563140
22174.3270000	10.3781600
22073.7510000	4.6345044
21978.2210000	20.6875250
21883.3610000	-3.4955346
21761.7140000	7.0230171
21684.0740000	11.1075020
21572.1260000	-4.7699406
21449.8190000	-18.0447030
21376.4850000	20.7529170
21278.4010000	11.0977210
21184.1900000	16.5215830
21083.5360000	1.2516948
20963.4790000	-9.4535360
20874.6220000	-13.5773350
20761.0780000	-23.2883680
20687.3420000	-10.4040600
20582.8270000	-13.8460540
20475.8480000	13.1315810
20369.7480000	-21.0543680
20301.2360000	15.9192600
20192.3680000	-10.5762320
20116.2910000	7.4733831
19980.5860000	22.9959810
19921.2650000	5.2163639
19827.0800000	22.6011430
19724.8620000	10.3970230
19632.5020000	-8.7581879
19560.7810000	-11.4737870
19460.0830000	-22.1878730
19362.2090000	-17.8893990
19285.0340000	18.3676140
19165.8420000	17.3489590
19066.8780000	-18.6794650
18977.3950000	-13.8009030
18916.3580000	16.0292060
18828.3390000	-6.6596392
18748.3480000	3.9359008
18618.3490000	-8.4889509
18555.6580000	-14.4612960
18476.2030000	-20.1362630
18391.5020000	12.5448850
18297.3650000	22.3927190
18214.0050000	23.3718150
18130.0970000	1.0685612
18023.4810000	-19.6014480
17971.6950000	-21.7244660
17849.9290000	8.7274590
17773.3950000	-22.1312780
17716.9660000	-17.2252230
17605.9060000	-0.8275623
17544.0200000	19.6569070
17444.0200000	18.9222520
17351.5390000	22.5248710
17269.2670000	15.8668700
17189.6680000	-3.5463452
17122.7180000	3.9001875
17027.1040000	9.6708650
16938.5740000	-4.8829463
16893.5420000	-19.9791150
16819.6710000	4.1607653
16730.0920000	17.6616230
16637.3130000	-22.4900810
16576.6080000	-11.4755340
16495.6130000	6.8515750
16394.4490000	-9.3093305
16343.6890000	-13.4377360
16237.2410000	-3.9428222
16168.0950000	0.9977757
16096.8960000	-12.8580910
16047.1560000	6.7238879
15962.6980000	16.1810840
15874.3500000	-7.1690718
15781.4160000	22.6821420
15723.8730000	20.6771730
15674.8080000	-0.0524840
15584.8170000	8.7735370
15507.8300000	17.9982020
15435.3650000	-14.1854610
15370.4890000	-19.7032740
15304.1240000	13.3769540
15237.2230000	22.3757580
15148.8360000	2.4293437
15058.0390000	13.7124580
15013.8780000	-17.2104430
14919.4140000	21.0339450
14870.3640000	-2.9186792
14793.2470000	-9.9506745
14733.8940000	-19.1371450
14658.5740000	-9.2258468
14570.3500000	-16.2164000
14540.9890000	-8.8593331
14464.7280000	14.1220280
14398.5540000	6.8628454
14305.6430000	-23.1080000
14254.9300000	19.7227590
14164.4380000	-5.0710417
14109.2320000	-1.5942857
14044.3370000	21.0936280
14003.1020000	-2.8051481
13931.5690000	12.4470420
13839.2620000	5.6497939
13774.6740000	-22.4978770
13739.1590000	-12.4458300
13644.4720000	19.7618130
13570.9810000	-9.2883213
13516.2180000	-5.9683163
13465.1810000	-10.8393080
13378.6910000	-16.2006440
13325.7980000	-13.3934720
13288.6390000	-14.8615500
13204.8140000	0.6477336
13146.4250000	14.6904620
13104.0110000	-20.0199790
13015.9780000	-18.8710590
12983.1210000	2.6482785
12910.9270000	2.2506186
12836.9690000	-20.6388780
12800.6560000	-4.1703208
12723.1970000	5.1540343
12646.0160000	4.7033956
12604.3430000	-9.8666429
12536.0470000	20.8786570
12482.2610000	-22.3195390
12406.3330000	-21.6893390
12379.6970000	-13.7608610
12330.3580000	-11.7496730
12262.4030000	15.2157130
12205.9230000	-2.4655364
12158.7070000	-2.2919200
12084.3620000	-0.5629181
12025.5040000	-12.2274650
11965.2090000	-6.8203251
11930.7150000	21.7276100
11873.1150000	13.7613500
11795.5930000	19.8978580
11741.1890000	-6.2845528
11710.3120000	-10.4822220
11653.1320000	-15.1529840
11556.4390000	-0.0954744
11548.9920000	-13.8264990
11460.4620000	4.0836088
11408.5460000	3.6866050
11342.4810000	-13.7962910
11326.6750000	-12.2232880
11242.9610000	22.8407860
11221.2760000	-19.6841570
11146.7130000	11.7119440
11114.1080000	-21.8609430
11055.2160000	2.3935959
10972.3670000	6.9641976
10957.4990000	-8.6903693
10914.9430000	21.5219330
10854.1930000	-4.1494385
10790.1080000	22.4846340
10731.7240000	0.1192583
10678.7100000	7.1614372
10643.8070000	4.7938716
10604.0340000	-16.9012080
10560.8110000	-1.5599317
10481.0470000	-8.8873038
10416.4390000	3.3206090
10368.4600000	19.7597040
10340.8100000	-11.6371850
10292.4790000	-2.6203506
10231.7140000	17.8797900
10198.9530000	-0.9137897
10159.4290000	-15.7439410
10080.4270000	9.1476942
10074.7010000	0.0406536
10002.8340000	8.3610617
9943.3159000	8.5993698
9925.7335000	3.5176053
9867.4055000	2.2267350
9841.5795000	8.0140216
9779.1203000	10.4973590
9736.4970000	-0.0198340
9673.6805000	-16.8408940
9646.3487000	4.5794561
9585.4848000	-15.9387600
9566.9150000	20.4825360
9490.6720000	-14.6631070
9473.2858000	-1.2503524
9396.0615000	-1.7890893
9372.2186000	20.3751250
9311.4957000	-5.9259209
9258.6624000	14.2547730
9229.6104000	16.2800280
9183.7431000	-13.6824140
9166.0871000	21.8151430
9117.8522000	-4.3917753
9070.6018000	9.8073231
9029.0325000	-19.2004180
8965.1358000	-19.7916930
8950.5464000	-17.2744610
8901.1464000	12.1326200
8854.5174000	-23.1414590
8794.8419000	2.5228045
8778.4624000	-18.8361290
8751.0023000	-12.7782930
8687.1354000	-6.4613658
8628.8537000	1.7519873
8618.5731000	-13.2889790
8560.7652000	7.3383042
8516.8211000	11.1786300
8488.3126000	-4.8616001
8439.4655000	-20.0217030
8414.6043000	-3.2461781
8384.5673000	-15.7601270
8345.8412000	22.4128070
8264.0846000	-0.2832192
8230.3104000	10.5724930
8223.6034000	9.6412572
8164.5576000	-10.0860790
8134.6364000	-23.3142260
