jMRUI Data Textfile

Filename: dataset19_WS.txt

PointsInDataset: 2048      
DatasetsInFile: 1         
SamplingInterval: 2.5E-1    
ZeroOrderPhase: 0E0       
BeginTime: 0E0       
TransmitterFrequency: 1.2322E8  
MagneticField: 2.9E0     
TypeOfNucleus: 0E0       
NameOfPatient: dataset19_WS
DateOfExperiment: 
Spectrometer: 
AdditionalInfo: dataset19_WS
SignalNames: dataset19_WS.txt;


Signal and FFT
sig(real)	sig(imag)	fft(real)	fft(imag)
Signal 1 out of 1 in file
280.1104200	-114.6164400
514.8879100	-229.6727900
367.2509800	-390.5855500
163.8908800	-455.6127000
-19.5810910	-421.8805200
-163.3042000	-303.9561300
-213.7719100	-164.5194100
-187.8692200	-52.4936230
-125.5778800	23.6024550
-63.0312330	55.8627090
12.3297560	24.8788440
32.2255350	-8.3238714
28.4211720	-51.6979220
-8.8526720	-91.7119730
-38.9101420	-86.2713710
-78.2339090	-77.8339380
-100.3976100	-50.1711080
-98.6814140	-8.8979132
-95.7151310	3.9041351
-94.2078480	26.2363200
-66.8792410	45.2847560
-65.5647140	64.4321970
-23.0504700	72.9707810
4.2289803	78.2878090
24.2243870	78.3363780
48.5993810	53.6824500
71.8708690	6.1199141
51.5550350	-30.3635560
12.6952920	-44.1506580
-14.1320260	-56.0311530
-39.0687930	-37.6621850
-57.7546830	1.0027525
-54.3483680	42.3526750
-42.1024320	59.5729990
-0.2146109	91.8750100
22.7807690	76.0188900
66.4411520	56.7732980
78.8354260	40.9046590
74.5227610	18.1549120
77.3683740	-22.2841950
67.4436780	-28.3253000
40.4265610	-55.3818050
35.9556860	-55.8771680
5.4040596	-45.4641400
-7.5536562	-38.6394130
-26.4955980	-33.5273450
-27.8129110	-20.6435230
-13.3018890	-3.9864177
3.0022283	16.6494400
10.1451870	-0.9838621
21.7110390	-10.6273900
7.8942538	-17.2214850
9.8814789	-45.1632320
-25.3421320	-42.2982120
-40.3361210	-30.6475970
-73.9150840	-13.5246840
-70.2389900	33.1096310
-36.2946370	63.2297040
-5.7910252	81.4303680
34.8336980	65.1037770
51.3029290	50.7346670
72.7604440	-2.1564281
77.3928360	-19.3087900
51.5530410	-52.8073490
15.2331440	-74.3620460
-5.0348983	-61.8635500
-37.2203410	-51.5530620
-41.5392770	-15.6903120
-32.2522110	-12.4965800
-30.5866420	7.9576269
-23.0754860	4.9994846
-19.2467950	10.4675040
-9.8082251	21.5577370
-13.5133130	7.1663647
-7.4170566	14.6886020
13.1831450	-0.2213718
0.6601273	-10.7862400
-7.8154479	-22.1523950
-13.9970870	-5.5428848
-19.3882350	-6.4170913
-31.4198780	0.9247533
-42.5363280	18.8279450
-26.6955130	41.2895280
-19.8775950	57.0068800
23.3868900	52.2891660
38.5863690	39.2891690
59.2253280	26.3150210
53.5671290	5.8229917
47.1178630	-33.1871270
24.3743620	-41.8429700
-15.6882800	-39.5705300
-33.9492490	-16.1525350
-22.9908680	-8.2279968
-33.0395130	28.2101960
-6.7366485	23.4195970
22.2233910	38.9208590
42.8620460	11.3671840
43.8941460	13.2928260
36.1345310	-20.6390400
41.3389180	-45.5648120
19.7082330	-57.8486720
-6.8813607	-54.3800560
-22.8210510	-41.9747620
-41.0000190	-46.5406770
-40.3426700	-22.1798370
-58.1263850	-8.0655891
-50.7865670	20.7503930
-36.7775480	18.1670870
-36.1004640	43.1568800
-17.2541570	51.0528950
2.2815984	52.3728170
30.5964550	27.2119600
30.3358770	3.0028419
29.6280920	-1.9447559
21.9618620	-24.9407620
10.3198730	-26.0988840
-17.4375200	-14.9221020
-8.9034801	0.8113388
-6.6966791	14.9684420
4.5700220	24.8911820
13.0161590	31.1566400
29.7513970	7.5495227
21.2581060	-0.6593256
34.0270530	-11.2734220
17.7463000	-38.3386850
-7.9849966	-23.4985030
-21.4586710	-24.4830510
-16.1831880	-26.6950630
-28.6156600	-14.8621700
-28.3362870	1.1093713
-31.6715800	25.3625110
-11.3955190	31.3718830
-11.0154880	34.8455130
6.0271410	39.8860180
10.7059120	33.5433740
26.9571720	17.0105340
24.8664760	14.7656300
38.4093390	-3.4402261
41.6459180	-17.1957930
34.2618260	-37.7528420
17.7598910	-32.7898480
-10.6716960	-44.1916940
-5.0611524	-26.9438830
-19.2843950	-24.6716720
-31.6925630	-2.9208055
-14.7049640	4.0875672
-18.2154610	15.6552440
-10.6305710	0.5484742
-0.1871864	-4.4353315
-6.0173614	-3.5843010
-8.2713412	-11.2072310
-24.5330430	-18.3039300
-29.2990980	8.7674268
-26.8667120	5.4515616
-31.3026090	32.6537640
-3.6152885	30.7134380
-7.5309403	23.6591020
24.5816430	31.7873490
36.5581660	27.3594810
32.2567260	3.2977614
37.4912430	-6.8746875
33.2653940	-27.4807160
18.7488120	-32.2768030
-7.4947735	-36.0533570
-7.5237089	-31.7656950
-33.9679950	-13.5234830
-47.1801020	-11.7939680
-43.7426880	17.4876300
-40.3639840	33.5062380
-25.2910810	29.4775700
-16.7965400	34.6208820
-0.6775601	29.1686650
9.5757165	33.4576870
15.3357550	24.4907910
32.5156480	20.7379420
33.9577920	8.1579723
28.4761820	-8.9367053
8.5918189	-6.1548986
11.3656910	8.9594336
21.0381570	8.2293463
13.4131010	6.3836684
30.1748420	-13.9367260
31.1483890	-17.7727080
27.3375570	-28.4402650
9.5453991	-23.4477890
0.0619769	-39.4789310
10.6235820	-29.8268290
-19.0080070	-34.1969120
-16.1481870	-21.0938550
-36.3498690	-20.1301810
-31.2514680	-2.6837570
-28.1685440	7.4349839
-33.7611520	9.7168726
-24.1198400	29.0227250
-21.7415150	25.9241200
-7.7206853	34.4433090
-0.2791173	18.9388230
15.9534990	5.2028641
12.8569540	11.7544150
11.7142750	-3.5181604
0.1676040	-9.1837687
3.7539553	1.4551648
-1.9741718	-8.4402270
-8.0270663	-9.8131036
-9.9484990	3.8701141
-10.0738650	17.5277930
0.6674605	11.2764470
1.4594639	13.4948880
6.1904131	-2.6879838
5.1762752	-0.1018061
8.1680896	-5.5672633
-6.1527737	-10.1232210
-10.6241910	-4.9775237
-21.4744240	-12.7827960
-10.4207530	9.1336965
-21.6103320	21.3721930
-7.5161277	8.2629544
-2.9222970	18.1707800
5.3307573	26.1900330
21.0687590	19.1672310
28.1924180	19.7519320
29.9521310	-2.3516845
31.3100460	3.5932179
26.7237480	-21.6204940
24.5183890	-25.0756940
7.4895991	-21.7768700
-0.0073383	-24.9697230
-11.2678830	-15.9856170
-23.4315220	-21.4268190
-4.1907583	-13.1302520
-2.7603990	-3.6667147
2.0809221	16.1334720
-9.4326295	-3.2258040
4.7775208	-6.0043657
9.6441641	-9.5427387
-3.7576748	3.5762904
-2.3965528	-10.5017570
1.4759841	-14.6726460
1.9801437	-11.4021200
-11.3070560	-13.8126570
-17.9038510	-5.2718282
1.8003254	-5.4803948
1.5610485	12.4519970
-12.2334180	2.2008427
-2.9912069	7.5740082
-8.1182403	-0.1152898
7.2490136	4.4240570
1.0976004	-14.8698730
1.5665743	-1.4985263
-13.1201080	-20.3218180
-17.0299240	-7.5831174
-17.3389930	-9.5381434
-19.0412150	-3.3731069
-21.6051140	3.3784289
-2.3562499	28.9464660
6.4090036	20.9124880
-2.3518988	29.5032820
9.5000757	22.9679820
21.5002550	15.1044860
13.2508880	-1.4865822
7.7159835	-2.7247798
-0.1519528	0.6495980
-7.0341590	-11.5616650
-3.1268562	7.1452188
-8.5887516	-4.1967547
2.5509592	14.1207570
-5.4804946	13.9206560
9.0519108	14.0907370
13.5063130	8.0962563
15.4587080	8.9388554
17.7027220	-10.8678490
13.2423790	-11.9244940
10.5260260	-11.5094350
-6.4717805	-11.8873840
-9.3036902	-11.0806770
-6.9767291	-19.2195120
-10.4431310	-11.1119600
-17.9164600	-1.3758680
-15.0344830	-6.8924653
4.5820304	-2.1634726
2.9590461	-2.8530359
-6.3006668	-1.2530423
1.2170482	0.8003268
11.2941130	-9.8448411
-1.8764713	-9.2611448
2.4906673	-16.2155660
-2.6968827	-15.7766100
-12.4475170	-7.6660603
-15.5869190	8.5715707
-13.7006940	12.1170950
-10.1974470	1.0611225
-6.4838058	21.6826240
6.5229616	9.7410370
3.7932814	16.6788040
19.5995540	14.2252370
25.7623490	14.6250330
19.7063210	-12.4128520
9.2248482	-14.8448840
7.8959830	-8.6608372
6.8868583	-11.9537010
0.6873997	-13.1930230
-16.1752350	-8.9255068
-18.3400280	-15.7906340
-11.4078860	3.0455394
-9.0020431	2.3026262
-14.9045540	-5.0050352
-13.4414500	-4.4164878
-1.9445783	-1.3338480
-7.1922113	2.3384246
2.7542831	5.2836656
-9.7594433	8.7503961
-9.2862390	4.8850014
-9.8361108	-5.4227576
-1.1934616	-1.0839939
-12.0269250	15.3210000
4.9754223	20.9138630
-5.2072881	13.2210270
14.1685650	17.1583230
23.2130530	6.9367339
19.6827080	-3.3595528
27.0330000	-6.1349019
12.3683960	-14.7614950
9.8677742	-5.4077900
13.8468130	-12.0057980
-7.3703111	-19.6618860
-15.1589520	-10.2415650
-6.1766394	-12.4109610
-13.9878180	-13.4089450
-1.9434184	8.4774418
-8.7957515	-3.2568077
2.6291746	3.2420386
8.8420156	7.9474359
1.3684516	-7.4283394
-7.5130740	-11.9296620
5.9870547	4.6843237
1.9579318	1.3883326
-5.6203102	6.2971690
-5.3490149	-10.6570260
-0.0124485	-0.2891534
3.4522589	-7.6430556
-2.6813125	4.0150076
-11.3172630	12.0571440
4.4265161	12.6350550
-5.5959393	9.7813579
5.5331440	-8.5270943
0.1287300	-11.2597080
1.1070032	1.6187652
-2.1378560	-11.7517930
-14.2812350	-10.3939970
-16.2194800	1.1134019
-7.0717752	20.3741230
-7.9060844	21.4085060
-10.6284710	22.9567080
15.5327290	8.2082255
8.2894774	21.2425280
16.8774560	18.3742460
26.5721290	1.8110256
8.3331368	0.3820742
6.9654649	-13.3535340
2.2749761	-11.8133230
-0.2101624	-3.1269873
2.8008508	-13.4378410
-2.7212256	-7.4762196
-8.3883904	-15.2936660
-4.8054017	1.4946308
-4.9447266	1.6770714
-14.9121980	2.8112917
-2.2283326	-10.2153750
-7.2269785	-11.7871660
-12.0146110	-10.6517290
-14.5254330	-16.6218930
-20.3372120	-5.8324732
-20.1891620	-5.8888666
-11.5141520	-2.6278644
-7.9613663	-1.1777341
-6.6047551	2.3697064
-16.5277070	26.1332500
6.0643107	20.3858920
8.0150784	10.9867960
12.7702130	7.3655840
9.1018511	16.3510720
12.0462200	-7.2379616
21.9249990	-5.5805138
21.7652920	-8.9072919
12.6931460	-17.7283800
14.4547620	-4.5960351
-11.0704220	-7.4207135
-13.5774190	-15.1734770
-11.6880080	0.5567240
-12.7726730	5.0959051
-3.1470103	1.6053847
-2.9716815	11.1073280
-1.4437675	-0.9546208
-3.1953771	-3.5506682
-5.4745838	10.6396720
1.1631250	-6.7968240
6.2558704	-2.9423555
4.9103856	0.4195400
-6.4158386	2.2818968
4.4051716	-11.6115490
0.2235420	6.1027219
-9.3231522	9.9393004
-7.7351971	14.8929710
7.9330534	2.2250997
11.4898380	9.2244724
8.8734993	-0.3506287
17.5372290	3.6413430
15.3164170	5.8523130
6.2254177	-9.3361133
7.8710237	-5.7352948
-10.6163630	-10.7254510
-16.1887270	1.5026774
-5.9466228	4.4896730
-10.9546690	9.5301041
-5.2168187	5.9497024
-2.6066552	-2.0671484
9.7544102	12.6608920
1.4165838	-3.7643516
5.0572406	7.2935741
-1.4136953	4.6787727
-2.7766916	2.2865849
7.7754874	8.9219538
8.5323338	-5.5861399
8.9582285	-6.2009807
2.8036596	-7.4488868
-11.3551680	-8.8180535
-3.5972698	-1.6231153
