jMRUI Data Textfile

Filename: dataset22_nWS.txt

PointsInDataset: 2048      
DatasetsInFile: 1         
SamplingInterval: 2.5E-1    
ZeroOrderPhase: 0E0       
BeginTime: 0E0       
TransmitterFrequency: 1.2322E8  
MagneticField: 2.9E0     
TypeOfNucleus: 0E0       
NameOfPatient: dataset22_nWS
DateOfExperiment: 
Spectrometer: 
AdditionalInfo: dataset22_nWS
SignalNames: dataset22_nWS.txt;


Signal and FFT
sig(real)	sig(imag)	fft(real)	fft(imag)
Signal 1 out of 1 in file
43823.9420000	-23932.9240000
43418.7720000	-24189.6720000
42991.5260000	-24453.6210000
42602.3380000	-24689.4940000
42186.0500000	-24935.6450000
41782.3300000	-25164.0310000
41354.2610000	-25395.5120000
40967.1770000	-25624.3470000
40543.3540000	-25846.2900000
40143.4730000	-26065.9290000
39735.8930000	-26272.9120000
39325.7720000	-26481.6050000
38922.9140000	-26668.8750000
38523.3300000	-26868.6920000
38122.2810000	-27065.4700000
37702.0840000	-27250.5000000
37321.7450000	-27421.6470000
36903.2950000	-27607.1730000
36507.6250000	-27755.9710000
36102.0940000	-27929.5510000
35705.3740000	-28088.3010000
35311.8290000	-28243.6040000
34923.2830000	-28404.9470000
34528.7570000	-28552.2840000
34151.9780000	-28689.4560000
33759.7930000	-28822.2170000
33355.8790000	-28969.5190000
32970.0990000	-29085.9950000
32582.1620000	-29197.3550000
32212.8190000	-29320.4020000
31815.4400000	-29426.2690000
31430.9360000	-29547.4710000
31070.3270000	-29656.2470000
30695.2170000	-29752.7980000
30299.6250000	-29843.9120000
29936.6810000	-29930.3840000
29570.8000000	-30029.8370000
29198.2120000	-30105.9500000
28839.9230000	-30182.9580000
28468.7130000	-30250.8720000
28116.1560000	-30330.4400000
27751.7580000	-30404.2020000
27408.7850000	-30461.0740000
27030.3040000	-30511.6980000
26685.0370000	-30570.5410000
26347.8160000	-30618.3630000
25994.7200000	-30650.6240000
25657.2180000	-30696.9950000
25311.9950000	-30739.6410000
24977.2360000	-30767.8970000
24649.3890000	-30814.7370000
24317.6720000	-30838.6070000
23971.5650000	-30850.4700000
23657.7880000	-30868.5990000
23324.5930000	-30892.1250000
23013.6650000	-30896.1120000
22692.8800000	-30905.2710000
22369.3720000	-30925.4250000
22061.3300000	-30927.9660000
21755.5830000	-30922.4050000
21440.0890000	-30916.4610000
21149.9420000	-30915.8160000
20853.7450000	-30908.0560000
20545.9990000	-30903.4230000
20251.8720000	-30887.7470000
19967.4340000	-30859.5210000
19689.4160000	-30836.0570000
19400.7630000	-30807.4080000
19110.8780000	-30783.6760000
18844.7120000	-30758.0960000
18580.0170000	-30731.3660000
18285.4790000	-30697.8510000
18017.2880000	-30660.7410000
17753.3860000	-30623.8580000
17508.5790000	-30584.7260000
17240.7820000	-30540.0600000
16989.8830000	-30476.1850000
16731.7340000	-30432.4860000
16488.4620000	-30385.2240000
16235.6580000	-30338.7500000
15998.6750000	-30269.4540000
15773.5380000	-30220.2010000
15530.9600000	-30169.8650000
15288.8390000	-30101.2790000
15077.4810000	-30048.2100000
14842.1810000	-29968.7720000
14631.0090000	-29911.2510000
14414.3720000	-29849.4800000
14198.2660000	-29758.5100000
13983.2100000	-29691.5560000
13775.8500000	-29629.4800000
13574.6500000	-29548.1550000
13377.9750000	-29466.1250000
13182.9660000	-29402.0650000
12981.4810000	-29305.3640000
12783.7280000	-29245.0440000
12611.1040000	-29157.0040000
12412.7320000	-29082.1970000
12233.2310000	-28993.2590000
12050.3570000	-28906.7800000
11886.5910000	-28811.3300000
11716.2330000	-28716.9120000
11536.7280000	-28627.7590000
11368.2520000	-28551.2120000
11205.2200000	-28450.2020000
11050.3620000	-28366.6030000
10902.9010000	-28263.2210000
10747.1600000	-28167.0620000
10600.8890000	-28069.1570000
10462.6480000	-27992.5150000
10310.2070000	-27888.6540000
10156.0460000	-27789.3000000
10016.6280000	-27694.7520000
9902.1450000	-27592.7490000
9761.2805000	-27494.2180000
9635.4065000	-27402.0960000
9499.6210000	-27301.9000000
9382.3560000	-27189.7310000
9270.2706000	-27103.2660000
9149.6367000	-26995.4240000
9025.8358000	-26892.4180000
8917.4377000	-26797.3120000
8826.2665000	-26685.4760000
8709.2303000	-26581.0840000
8609.2354000	-26458.5530000
8496.1787000	-26368.5950000
8403.2110000	-26258.2250000
8304.2024000	-26149.5660000
8212.6089000	-26060.9320000
8122.6398000	-25947.8050000
8038.1716000	-25827.7580000
7955.9304000	-25741.5800000
7883.8108000	-25624.5360000
7791.9983000	-25515.7520000
7708.0810000	-25420.5860000
7637.4580000	-25307.7970000
7565.2951000	-25196.5410000
7501.6205000	-25080.1690000
7429.9317000	-24984.2570000
7348.7045000	-24861.5730000
7305.9940000	-24754.5490000
7230.5400000	-24660.8010000
7182.6298000	-24540.7950000
7120.8707000	-24440.0150000
7067.5422000	-24324.5290000
7018.9910000	-24218.9350000
6958.4112000	-24103.9440000
6918.8203000	-23997.8060000
6859.1705000	-23893.2330000
6817.4165000	-23776.4430000
6765.4849000	-23668.7130000
6728.0268000	-23579.5950000
6704.1291000	-23463.3580000
6659.6527000	-23341.5410000
6623.9411000	-23232.9920000
6579.7065000	-23134.8470000
6567.5280000	-23017.9160000
6519.1750000	-22913.1660000
6508.3057000	-22805.9290000
6473.3961000	-22706.6110000
6457.6957000	-22589.8380000
6435.3052000	-22490.8430000
6404.0877000	-22374.2610000
6377.5686000	-22270.9720000
6361.7933000	-22151.4590000
6343.0643000	-22057.3370000
6342.5081000	-21945.0750000
6311.9756000	-21836.7870000
6315.0270000	-21728.2150000
6295.8029000	-21606.7190000
6280.7466000	-21500.4840000
6265.6411000	-21415.9150000
6272.0838000	-21297.0220000
6254.6131000	-21196.5100000
6258.4806000	-21071.2290000
6251.9505000	-20980.6000000
6250.5541000	-20858.8940000
6249.1267000	-20752.4300000
6255.0217000	-20652.3260000
6245.3300000	-20554.3220000
6255.7014000	-20431.7810000
6242.6281000	-20349.7140000
6244.8822000	-20232.0270000
6257.9832000	-20140.7290000
6269.2528000	-20020.7310000
6276.3908000	-19906.5740000
6293.2169000	-19817.5460000
6291.7850000	-19712.9230000
6287.4043000	-19605.6040000
6315.2249000	-19501.1540000
6321.5359000	-19387.1030000
6338.2701000	-19293.1850000
6330.3984000	-19182.9070000
6359.7177000	-19069.0040000
6366.0900000	-18969.7180000
6375.6185000	-18862.6260000
6404.6184000	-18764.9460000
6413.6059000	-18665.9970000
6440.4527000	-18564.3150000
6452.0628000	-18460.6880000
6466.7281000	-18355.2500000
6479.3868000	-18253.4410000
6493.0626000	-18141.1810000
6513.0881000	-18050.1460000
6541.4700000	-17947.0700000
6552.8858000	-17827.8600000
6573.5450000	-17724.6490000
6591.4194000	-17631.0040000
6614.3303000	-17518.4690000
6622.4860000	-17422.9050000
6655.2263000	-17321.4840000
6683.9371000	-17233.4550000
6697.3916000	-17121.4340000
6725.4518000	-17014.7210000
6754.4251000	-16916.2870000
6754.6867000	-16816.0300000
6776.6942000	-16712.5740000
6820.1918000	-16609.1450000
6832.7152000	-16515.3680000
6868.5375000	-16419.4890000
6892.0871000	-16319.3420000
6904.7909000	-16213.3010000
6913.4998000	-16109.0450000
6956.3947000	-16022.5730000
6963.7931000	-15914.5250000
6990.0277000	-15823.7890000
7018.5663000	-15722.8300000
7035.4037000	-15622.1560000
7065.9468000	-15511.0550000
7093.8734000	-15410.9190000
7113.0823000	-15325.8580000
7146.5479000	-15220.8230000
7148.6010000	-15116.4860000
7184.6646000	-15014.8520000
7217.5696000	-14933.0190000
7232.8886000	-14837.4550000
7253.0548000	-14736.7970000
7266.9980000	-14625.6640000
7298.7837000	-14535.1240000
7315.8395000	-14449.5580000
7342.2700000	-14353.3020000
7354.7756000	-14241.3810000
7381.0541000	-14152.6580000
7414.6343000	-14061.3780000
7420.9193000	-13961.1210000
7442.2552000	-13869.6360000
7458.9139000	-13775.3810000
7479.8522000	-13675.6870000
7494.8712000	-13574.8080000
7528.3561000	-13473.8840000
7545.7874000	-13389.9100000
7548.9012000	-13295.4760000
7568.0119000	-13208.4480000
7590.7281000	-13113.8880000
7604.8881000	-13017.6150000
7645.8860000	-12934.4370000
7661.3923000	-12833.5500000
7664.8814000	-12745.0900000
7680.7374000	-12652.1480000
7690.4821000	-12553.7440000
7720.8597000	-12460.6120000
7739.9202000	-12381.1260000
7730.4366000	-12285.4840000
7749.3654000	-12197.4720000
7782.9272000	-12108.0760000
7782.2673000	-12022.2540000
7804.2715000	-11935.9450000
7807.6035000	-11838.2340000
7815.3522000	-11761.0670000
7834.5373000	-11669.2120000
7851.9176000	-11587.0440000
7861.0609000	-11506.1820000
7865.5139000	-11399.2210000
7878.3197000	-11316.4830000
7885.7829000	-11241.7790000
7909.3693000	-11148.4600000
7921.0098000	-11066.3150000
7918.3162000	-10988.3260000
7922.7842000	-10904.0860000
7923.7287000	-10803.4920000
7932.1205000	-10723.2640000
7949.7535000	-10633.1950000
7940.7579000	-10559.0620000
7960.1784000	-10472.9920000
7970.8714000	-10395.3820000
7969.7847000	-10309.4660000
7971.6760000	-10249.8790000
7971.5446000	-10162.0970000
7972.4183000	-10082.9960000
7987.8715000	-9996.9547000
7978.8274000	-9909.0070000
7990.7982000	-9848.6166000
7982.3589000	-9773.7432000
7983.6610000	-9677.9568000
7984.1400000	-9613.6531000
7985.3670000	-9527.3394000
7977.6864000	-9456.9555000
7987.1343000	-9368.8447000
7981.2415000	-9314.7113000
7989.5815000	-9226.9289000
7974.3499000	-9146.2460000
7972.0733000	-9088.9468000
7980.0198000	-8998.3615000
7981.1395000	-8936.9523000
7964.0061000	-8855.0577000
7960.5926000	-8797.8985000
7949.1055000	-8723.0953000
7946.9741000	-8644.7435000
7950.6914000	-8592.6119000
7942.3554000	-8518.0390000
7937.0177000	-8425.1163000
7934.5660000	-8379.8735000
7933.1736000	-8305.6072000
7928.0876000	-8233.0414000
7920.0206000	-8167.2500000
7909.1819000	-8106.0844000
7891.6887000	-8028.7420000
7891.9689000	-7973.8235000
7865.9212000	-7908.0490000
7847.5976000	-7842.5772000
7844.3437000	-7774.1172000
7844.5212000	-7726.2666000
7820.3420000	-7646.8721000
7820.2618000	-7606.0226000
7799.4756000	-7533.6334000
7782.7119000	-7469.0666000
7778.1734000	-7418.8964000
7764.8494000	-7351.1435000
7743.6315000	-7292.7523000
7728.3316000	-7232.2712000
7725.4996000	-7183.5985000
7712.5066000	-7115.8384000
7703.4576000	-7065.2008000
7681.9578000	-6991.2408000
7676.3307000	-6937.6169000
7654.8976000	-6893.1774000
7638.9236000	-6842.9078000
