jMRUI Data Textfile

Filename: dataset20_WS.txt

PointsInDataset: 2048      
DatasetsInFile: 1         
SamplingInterval: 2.5E-1    
ZeroOrderPhase: 0E0       
BeginTime: 0E0       
TransmitterFrequency: 1.2322E8  
MagneticField: 2.9E0     
TypeOfNucleus: 0E0       
NameOfPatient: dataset20_WS
DateOfExperiment: 
Spectrometer: 
AdditionalInfo: dataset20_WS
SignalNames: dataset20_WS.txt;


Signal and FFT
sig(real)	sig(imag)	fft(real)	fft(imag)
Signal 1 out of 1 in file
284.0316700	-111.6245300
516.6157700	-216.6529300
350.4774700	-376.1189600
154.4112200	-458.6390400
-29.9417650	-427.1638300
-159.0116100	-301.1711000
-221.7955500	-176.0198600
-201.4766900	-56.3411120
-129.5178700	25.3282590
-45.1409580	52.4039880
0.6460686	35.2207910
43.3710290	-20.1374110
30.3841140	-55.3742850
-3.1463207	-84.9027770
-50.1139560	-100.3711500
-68.1045640	-70.2118000
-83.2191920	-49.5112440
-90.9526620	-7.7134259
-103.2762900	-2.7895727
-89.3585480	38.6500450
-84.9642660	43.9347290
-49.8409940	63.3807310
-25.0558170	87.4254440
5.7026041	93.7559220
36.3478880	75.0185500
49.1845290	40.8751360
52.1653100	5.4070566
54.4042760	-33.3588870
17.6677160	-52.1438000
-27.8664990	-43.5025690
-42.7863740	-27.1802000
-68.5124320	4.2554597
-60.4743340	36.1139180
-41.6191400	74.1736610
-10.4390630	89.7523480
25.6279290	77.6758280
60.4990870	61.8724180
61.9862360	36.8800190
73.5908790	12.6988520
60.0586720	-2.5542351
60.2679340	-27.7519000
37.6475200	-52.1029570
36.2960760	-59.6782470
3.0478827	-53.9794190
-12.8083990	-48.6980340
-19.9189310	-39.4688850
-21.3591500	-12.8018590
-13.3846940	-9.5870297
0.0388243	15.9258340
4.0039887	10.9973030
22.9405010	-13.6241950
27.6614170	-16.8567420
6.7967706	-43.7123320
-15.6288090	-49.2908840
-41.9568070	-34.7980420
-61.4945280	-0.2969133
-72.3645360	26.9164260
-41.4757880	47.7459510
-14.2837920	75.7701250
39.0901220	63.8433690
62.1208150	38.3191010
63.5898910	7.4959781
68.9086760	-19.5733660
35.6034390	-59.2027170
22.8496380	-54.7184390
-7.6190462	-63.8729580
-38.3722480	-35.8497510
-32.3141990	-29.3424030
-41.6867920	-6.9418221
-27.6743690	18.1971170
-18.0772610	12.6007090
-4.6875280	9.7961022
-16.0660200	19.0467440
5.5855988	2.9556496
-9.9831585	12.2859890
12.6761270	12.9933890
-3.5239448	-1.9719010
-9.7071009	-7.6229385
-15.8030200	-15.8740130
-27.2768930	-12.0289090
-44.6563830	9.0195148
-45.8032120	10.0112640
-26.1899840	38.3997660
-8.4954423	55.0513360
18.1835970	61.0433220
48.1735870	41.1551600
65.5155500	14.2217290
56.7485190	-14.3953070
51.8203250	-24.5014000
17.9176950	-32.3146420
-5.6766592	-47.1483500
-35.9812930	-24.3900660
-26.6789080	-11.0264780
-26.9551910	30.5721100
-7.8149670	39.4211020
25.1555280	36.4590390
29.7708040	18.8130570
52.5452620	8.6215966
54.5955500	-14.4815650
44.3603350	-39.1139870
20.8326190	-49.3864070
-7.6552265	-46.7844190
-10.7761940	-42.8665170
-30.0327290	-43.1399260
-56.1030310	-33.4073460
-54.5866250	-10.8075520
-44.1191560	15.1308320
-49.0247420	39.9742000
-37.6903890	44.3824410
0.1226718	51.0810610
22.5703730	41.8075780
17.7849300	35.5569820
44.0817780	10.6098700
19.2625930	-12.9396090
24.4875910	-21.2625340
2.4325162	-21.3542950
-19.2054310	-22.2182180
-19.0712310	4.5953606
-8.2366876	22.4472710
-8.6808731	14.4931530
18.9406360	22.7266970
18.2675070	9.5239272
17.4828900	-4.9545880
18.0302280	-25.5977190
22.2757240	-18.8098410
0.8620643	-31.2513510
-15.7301500	-28.6583900
-37.3486260	-29.6089410
-37.2657890	-8.8158431
-36.1823810	8.7855401
-37.7833350	21.5991650
-18.1091790	22.6277270
-17.7875470	40.6214930
3.9463865	25.8487000
6.8093984	36.1002410
25.0061870	28.8342220
26.9202390	8.2368345
46.1433430	1.2628360
42.2348080	-11.3919600
30.1981730	-18.0262370
11.1602290	-41.0509570
-9.9207960	-37.9698620
-22.4675300	-25.2584990
-29.1709580	-5.2144265
-23.5792230	-10.7591790
-19.1048310	8.1465907
-8.9588718	12.6476640
-10.2705360	2.4983532
4.8712769	-1.5984770
-12.2225940	-12.4724140
-1.1518153	-9.7872645
-15.3577680	2.3772432
-22.7754630	4.7722581
-24.9252510	7.7149568
-24.9228750	28.2916070
-9.8722910	26.8323710
8.5323313	31.5511150
9.2219543	32.7643960
30.8494410	32.8077670
21.6220570	12.7222640
23.0845080	-2.7976453
33.3547890	-28.6648610
6.6761551	-28.5300320
3.5385938	-31.2174870
-25.6407100	-31.0001160
-36.4450330	-27.7866090
-36.1513980	-12.6794630
-36.2766590	8.5092031
-24.3343480	28.4923910
-24.7716890	30.2999900
-11.6440760	47.0459190
4.8214574	48.8101730
28.0154600	39.0360400
16.0895150	15.0943510
17.2429030	13.7688000
33.3256340	14.6949310
23.6981800	4.6776494
12.9896560	7.0700035
21.7811300	-9.2211516
18.7209640	4.7370837
23.1063510	4.1726045
34.4853460	-5.3312042
34.6240280	-19.7319110
26.6132530	-23.7514390
8.6772411	-38.7588270
12.1270290	-30.3405360
-3.0712327	-32.7057800
-20.8503830	-46.6904050
-24.1928240	-28.4314530
-37.7853310	-24.2067720
-27.2912460	-13.6456540
-28.8742570	-10.6726510
-22.7652560	16.2420960
-21.9613500	10.6740450
-7.6466216	32.2771820
-10.7909130	27.3386750
9.9385449	33.2488380
15.1257600	9.7118121
9.6135030	15.1031520
6.9925595	3.7351008
16.5708430	-5.9073944
-7.4118263	-9.9290807
-4.7767482	3.9120064
-15.9461810	7.7534888
4.2645431	4.7995261
-1.1231756	13.0854610
9.5580451	0.9369627
7.7313282	7.4510905
4.6994115	8.3829989
17.3509910	0.2745506
11.9425390	-10.0280410
-7.7219320	-13.1020100
-13.6838600	-8.7431239
-22.3324270	5.5330419
-18.0253820	9.9360329
-5.7476309	19.2584140
-20.7767530	25.7488840
-13.8590370	18.1546750
3.5715998	17.9991260
7.0587325	23.7499090
25.2587980	25.7915950
27.7349310	11.8494980
23.8475160	6.6448561
23.6973310	-5.7035500
14.5932310	-17.0546370
8.7674445	-13.4815550
-1.3963274	-23.1475520
-10.5199310	-15.7803750
-15.5399400	-9.5083145
-25.1988170	-2.0228922
-1.1085501	10.3627650
3.2395245	-2.4797868
6.8532414	3.5363930
0.9499260	-3.8691775
-0.5600242	-9.3608969
-2.9198487	-9.5950762
-0.8369105	-12.4972690
1.1413598	-0.5548354
-13.9259510	-7.2216952
-9.5504806	-14.7873580
-5.7101543	-4.2500445
-14.4586160	0.3285525
-11.7166100	10.1631720
2.9158644	6.6136433
7.2350114	0.4961731
-4.8605803	-10.0698240
9.1063768	-3.4056319
6.7009049	-15.8217140
-15.8698290	-4.1357579
-15.0283370	-14.2322380
-8.0814423	-4.1967344
-11.5805010	0.9976172
-25.0183280	14.3643730
-10.6096310	9.2733180
-16.5247820	9.7375059
-9.8992884	27.6018450
4.9034452	24.8993480
7.5466937	12.2366040
13.4537250	-1.9875532
9.3932118	6.1282532
0.1352418	5.8997942
7.1139091	-4.3643860
6.6557228	3.7533272
5.8466047	-2.1688254
-0.6923451	14.7475250
-4.5492608	-1.9832006
11.0249860	14.4242670
0.8169546	1.6761181
13.8812990	17.9842700
9.3569326	-3.3385884
19.4457760	-12.8930630
16.1221010	-8.8624257
9.0941629	-3.2864947
-0.2048765	-22.1860240
7.5334879	-24.7781810
-12.4117380	-22.2496660
-11.3240400	-5.7154019
-18.5590930	-10.4602990
-19.7215740	9.9332035
-9.5322794	11.2369060
-9.1611823	1.8291183
10.4680980	4.8214991
-4.3828375	12.1234960
15.6486680	-8.0171577
13.7730520	-6.5140945
-4.6919125	-6.0351020
-13.5169340	-14.7213750
-11.2935920	-17.6439730
-18.6977230	4.7231671
-18.7054990	0.6481749
-6.6100898	0.4831368
-12.4114920	14.0559380
7.1723428	7.8672526
2.2219593	16.7134710
3.2078743	20.7222800
15.6716130	11.9917850
9.2228981	-12.5142040
11.2546060	-17.4953020
16.1237600	-22.6058150
-2.8714646	-11.1665940
-7.6109998	-10.7123770
-6.4386115	-16.6514170
-4.2700645	-16.8539940
-10.6250970	-15.2878420
-6.4108047	-0.9664082
-18.1012300	5.9492850
-8.9553598	15.2771090
-9.7639206	13.5990040
7.3973796	12.9097740
-9.4504432	0.1893088
3.0480608	10.7146870
-11.1598180	0.7304421
4.4677197	-2.0572704
-13.0132630	0.8274400
-6.1785283	12.0125180
4.9797810	22.9827840
-2.0258151	8.6347656
10.2336760	4.0793125
21.8429500	-0.5256343
17.7136810	-3.8605371
12.4905570	-12.9839750
6.7801761	0.5177330
18.9405770	-16.3272450
4.3498982	-13.7008340
1.2529402	-20.4608380
-1.3411851	-6.8727685
-11.7494130	-2.6472902
-12.6111740	-11.2400880
0.4619366	9.2232538
2.2721906	-0.6234608
5.7859258	1.7102150
2.6596522	9.6834601
4.5087536	3.0752423
-5.9210145	-9.4247164
-5.6884180	3.4335069
-9.7087843	-1.5677985
5.5961862	5.5805395
-0.0656973	3.9130582
-3.9734472	-7.6013443
-5.8858711	-8.3799752
-13.6494330	-0.6557656
0.8124143	-0.3471206
-7.7168123	-2.9820108
0.7666259	11.8629810
9.5838359	-0.7481560
-10.2229180	-7.6017073
4.9272671	4.3135830
-10.3175290	1.6922678
-19.0408190	-5.7058721
-19.1429340	12.9490720
-21.7718670	4.7332027
-11.5602170	18.6760950
8.3468741	8.8721707
5.1828800	23.8919070
7.4174296	19.7926140
13.6631630	11.1735340
13.1822130	0.6926826
13.9015410	7.6565405
27.2880450	1.5587060
15.3631150	-21.4986090
7.4847991	-20.1381450
10.8519770	-11.1362560
-5.5718617	-4.8712649
-2.3018413	-4.4961929
-4.9579621	-18.6069380
-3.9968944	-15.8112640
-7.0382173	-10.5954470
-8.7871866	-13.2102710
2.0822538	-7.6554971
4.5404866	-15.0248080
-14.9935460	-2.7045317
-14.5131810	0.2077923
-5.1665489	-6.1040683
-3.8537146	-2.9456577
-9.6067803	14.2230230
-10.7562190	12.0100930
-7.1467300	8.2750353
-10.8130900	15.9874230
7.2585998	12.7707500
2.2252825	16.4692760
22.8672420	9.9767732
21.7814110	-4.2085031
23.8168030	-12.2360540
8.3129090	-1.2743632
-0.5980929	-7.9884761
-7.0218026	-6.9056635
-11.2698170	-11.7264110
0.9294870	-0.8288053
-4.4869858	1.4379529
1.8422299	-2.3819594
-11.6179970	12.8530930
-12.1711890	5.1991913
5.0041559	0.6612583
0.7135238	1.0418579
2.4791531	-5.7613410
1.8895509	-5.5005906
-1.1797040	2.7048320
14.0717260	5.1671804
6.9600829	-9.2337293
-7.9732306	-15.0479130
-3.7609081	2.4030520
1.0423653	5.8125840
-12.7768850	7.5884385
-5.3656119	11.1546410
13.4130660	10.5310780
12.5315130	5.3061486
7.9691795	5.8604711
-2.9020224	-13.6823850
2.9942244	-4.3212962
1.1086766	-7.5877894
-1.5655709	-16.1354920
0.6104632	-9.6934193
-12.7586570	-0.3187000
-11.5319730	2.2918778
-10.4342120	-3.6117796
-7.0272545	-0.0265702
6.4537284	7.4838219
1.7606112	11.9604820
4.4215176	9.7096725
11.2404480	7.4200490
3.2416265	-8.6149401
3.9569257	0.3793834
11.1538260	-4.7860570
7.8132698	-6.6531823
-1.5684756	1.8137121
-10.3885070	-5.5591628
-5.1604323	-13.6041420
7.3409099	-0.9501377
