jMRUI Data Textfile

Filename: dataset23_nWS.txt

PointsInDataset: 2048      
DatasetsInFile: 1         
SamplingInterval: 2.5E-1    
ZeroOrderPhase: 0E0       
BeginTime: 0E0       
TransmitterFrequency: 1.2322E8  
MagneticField: 2.9E0     
TypeOfNucleus: 0E0       
NameOfPatient: dataset23_nWS
DateOfExperiment: 
Spectrometer: 
AdditionalInfo: dataset23_nWS
SignalNames: dataset23_nWS.txt;


Signal and FFT
sig(real)	sig(imag)	fft(real)	fft(imag)
Signal 1 out of 1 in file
49933.2390000	-16.4394810
49689.3520000	1.5764667
49467.6220000	22.8968920
49251.7710000	14.0566340
48976.5310000	-14.2853410
48787.4740000	-1.8675116
48523.3280000	15.8925140
48318.3010000	4.5568434
48102.1610000	-13.4921450
47852.3840000	-0.7818317
47645.4380000	19.0231270
47416.6490000	-22.9571820
47190.7100000	12.8366410
46978.7030000	16.7807480
46756.4330000	2.7766907
46538.1070000	-2.7977072
46315.8840000	-8.0637820
46067.7170000	-14.8364350
45883.0510000	-20.0280240
45652.3150000	-5.7541998
45422.4740000	21.6437070
45236.0320000	18.7401050
45000.3480000	3.8516395
44812.5500000	-3.1057901
44600.1380000	0.2913935
44385.2530000	3.3347499
44177.2770000	11.8584280
43980.5140000	18.9326410
43748.3900000	-19.4304460
43569.8220000	21.8800780
43358.5030000	22.2582060
43123.1840000	-5.6305795
42946.1450000	-2.3324177
42745.6960000	-1.5340638
42550.0310000	-9.6626094
42361.3440000	13.6557290
42133.9620000	-22.7918090
41930.1300000	-0.8288206
41743.4520000	21.4698210
41550.9180000	9.7839266
41342.4630000	-5.3077881
41169.6400000	6.7014775
40968.1940000	-17.8125970
40773.9740000	-23.1272150
40564.0580000	14.2936780
40397.3900000	-14.1332350
40215.2730000	-9.8475183
40012.5410000	-11.1182910
39818.4480000	0.7265386
39640.7130000	-17.9002620
39473.1880000	18.4317220
39255.6330000	3.2626915
39095.2680000	16.6090890
38907.8360000	3.4030107
38726.5900000	8.0967839
38524.3210000	-17.2976330
38335.0950000	15.1708110
38162.2240000	0.7092441
37997.4390000	-5.7697264
37821.3390000	-9.7724741
37612.1440000	17.8563040
37474.2060000	-21.5084730
37289.6720000	13.6361790
37101.8830000	20.3697980
36913.7380000	6.6881572
36742.4990000	-6.4087369
36596.8650000	-18.1453560
36398.4620000	-20.2131900
36263.6610000	22.7645520
36064.1080000	-0.8216571
35915.6700000	-19.3492360
35724.2910000	20.6453960
35587.5890000	23.0574810
35394.7160000	14.7254780
35219.0360000	16.8280600
35078.7110000	17.8118830
34908.9420000	17.9043600
34757.2020000	14.4076060
34550.1590000	10.1168230
34409.1680000	17.5650710
34263.9680000	22.3306580
34073.1800000	19.8720180
33942.5300000	-7.0216687
33752.4560000	-16.1602250
33626.7000000	15.3999340
33434.0790000	-23.0894990
33317.7330000	2.7565566
33116.1330000	-1.5630059
32966.1090000	-8.6558983
32833.6250000	-22.6733540
32662.6120000	18.0472350
32541.2110000	-13.4580500
32375.9590000	-9.5383938
32206.7620000	-20.7588340
32065.8190000	-14.3148090
31896.1600000	-11.9828450
31742.2220000	3.2306314
31633.4270000	3.4996356
31448.1210000	17.3581600
31332.5200000	-17.1626930
31155.6080000	6.3666638
31030.8510000	-22.4608260
30888.7790000	-1.6642199
30747.5460000	-9.4833056
30601.0710000	-18.1969470
30460.1420000	-9.7522549
30288.5530000	-18.6312390
30140.7530000	-3.8075713
29998.3460000	18.9734350
29881.8090000	-3.4134334
29713.8970000	-8.3533060
29606.4420000	7.3753295
29474.6140000	0.9819998
29324.4820000	-1.0643461
29191.7560000	14.8860290
29061.2580000	-4.6592466
28922.9260000	13.2248980
28773.9270000	22.9943620
28637.6320000	-20.7443700
28478.4220000	9.5484983
28358.2250000	3.8430458
28227.1020000	20.0288100
28084.4770000	-2.9225766
27943.9410000	-22.5832570
27854.6000000	-5.5977882
27686.2210000	-17.6061060
27580.2220000	10.0898850
27456.1860000	7.4456703
27304.0320000	-17.1894970
27201.6310000	-19.2501420
27073.9490000	-19.5753520
26941.4100000	-22.8320820
26810.3470000	-0.8194454
26682.2850000	-19.6626230
26537.9290000	-9.1368068
26428.3140000	19.8720200
26328.6980000	-0.3000016
26200.5610000	-17.0066960
26072.9270000	-17.3727730
25944.2840000	8.2624576
25816.0920000	10.7351670
25712.4610000	16.4413570
25549.8960000	-20.5378050
25439.4100000	-23.4049810
25318.3980000	1.7791728
25229.2990000	-10.2586670
25108.2430000	19.4600140
24970.1250000	-1.9763797
24878.1940000	-18.5628800
24762.9280000	5.5767784
24611.5440000	-3.2805210
24511.0430000	-3.3417207
24414.6270000	21.1437280
24302.3560000	-1.4243114
24150.0220000	18.4078370
24053.2970000	10.4943170
23949.3510000	-12.5416300
23832.6640000	-9.3222463
23713.3220000	-17.0129140
23586.8930000	-6.9095459
23477.3370000	-19.3988420
23362.2440000	11.6436710
23268.8530000	7.7574417
23179.2040000	16.1306930
23064.6380000	6.1234041
22968.4480000	19.2408890
22814.0080000	-10.7894720
22744.1590000	-1.1054501
22640.8270000	16.7886320
22500.1800000	-6.1923037
22392.6410000	-7.1957463
22323.6470000	-4.7069655
22180.9430000	-13.2179980
22078.7510000	-3.6969552
21981.1640000	18.7955900
21866.2600000	18.5376990
21788.8190000	15.0913720
21661.4890000	8.8429334
21563.2270000	19.9504040
21490.3060000	-2.1511900
21356.6120000	-2.4760783
21264.4810000	9.7569003
21178.4070000	-14.2990960
21096.7640000	-2.2525442
21000.7900000	4.1266552
20894.9680000	16.5629450
20763.8990000	-16.3660170
20702.5080000	19.6164980
20582.3760000	-17.3491150
20503.9650000	-12.1186500
20389.8350000	-12.2294780
20302.1300000	-7.4707148
20212.3550000	2.6157156
20085.6870000	0.8159063
20003.8960000	7.4219475
19928.6360000	22.3584400
19822.8070000	0.8072640
19714.2830000	-15.2696170
19625.9830000	8.2250299
19551.0090000	-5.6114845
19438.5520000	-5.1167386
19378.0650000	-3.3547668
19281.9420000	-16.7137420
19169.0860000	16.5654710
19103.4010000	11.5329310
19009.7610000	12.5656700
18934.3380000	1.1567892
18810.9920000	20.3985080
18719.6370000	-12.0340510
18630.4950000	7.2035481
18570.0610000	10.6443640
18470.2030000	13.2446800
18392.2300000	0.8654343
18283.9600000	-12.3342740
18207.2050000	1.8224576
18133.4330000	9.3248019
18052.2220000	19.5324270
17950.0350000	-3.1637656
17897.1910000	10.4046330
17805.7200000	-5.3654353
17721.3630000	13.5739830
17615.5110000	14.6112390
17541.7480000	12.9524720
17465.8470000	22.3366090
17361.1910000	-13.7842800
17290.5880000	-14.0493180
17216.0510000	-13.8129060
17148.4940000	18.9290290
17066.3920000	15.8117460
16954.9710000	-14.8895920
16900.7520000	4.0345007
16813.0010000	-14.0286310
16715.3370000	-5.0406953
16633.6200000	3.9585302
16562.9410000	-3.2869058
16521.4830000	4.4491057
16405.7380000	18.9020820
16327.8180000	-18.8945230
16286.1860000	10.2553780
16171.4550000	19.5457980
16091.9810000	-1.2853046
16025.8990000	3.8599870
15944.2980000	12.3572610
15873.9100000	-22.9969720
15793.9430000	-6.9491132
15721.1940000	15.4974530
15685.9570000	4.6261134
15579.3090000	22.6205430
15516.1230000	-1.9376964
15438.5900000	-6.7960387
15389.2590000	-11.3720690
15311.2690000	-8.2541657
15212.3180000	-14.3944230
15149.2510000	22.7854100
15103.4550000	-21.3031350
15011.7480000	-19.0984860
14931.5120000	0.1975509
14877.2980000	21.1436090
14780.7440000	15.1423470
14756.3830000	-1.6586994
14654.8470000	6.6931495
14584.4210000	-18.5190160
14541.1520000	-22.8312530
14445.8840000	12.4309600
14411.1030000	11.4693240
14304.8360000	-13.5932530
14273.7760000	4.6192250
14170.2510000	-0.4785249
14139.4860000	13.6052990
14054.0410000	-22.9645020
13978.2920000	13.7468640
13907.9830000	16.9515150
13860.9790000	18.9247350
13769.7030000	20.5277370
13751.1350000	4.4370798
13659.8310000	5.1294844
13620.9760000	17.3600700
13515.3800000	4.0807393
13460.1930000	8.6024280
13428.9590000	-21.6092840
13361.6080000	-11.3350880
13259.5170000	-16.5720790
13230.6330000	-6.6676372
13170.2040000	-7.4612505
13078.8600000	9.8141279
13027.4700000	11.7635310
12960.5810000	-15.2332850
12909.7450000	-19.7261230
12868.3430000	5.6555127
12772.7130000	-5.6239603
12712.9270000	14.2510400
12655.0200000	-7.3416442
12628.7820000	-8.1635583
12556.2290000	-0.8547023
12474.9940000	15.4096910
12440.9680000	-0.7374232
12377.1280000	-20.5097710
12337.7070000	-4.6143586
12249.6150000	17.1334090
12216.6360000	-15.7129470
12150.4580000	-12.8973250
12069.4450000	10.3911940
12052.0710000	5.3244032
11963.6500000	4.3989160
11933.9690000	-11.1934560
11874.5140000	-20.9813320
11820.3070000	0.9921032
11759.6280000	-1.1075915
11677.1460000	19.9119420
11653.3680000	5.4346877
11598.1780000	0.6337682
11544.5530000	-10.0520610
11481.5620000	-12.1840030
11446.4190000	-23.1492510
11377.1580000	-13.5734290
11332.2990000	-0.1085543
11285.5700000	6.2901371
11215.8690000	16.1905430
11148.1110000	9.0550817
11109.6200000	18.6015810
11044.0610000	-15.2356930
10989.1060000	-23.4327070
10961.6600000	-22.3012270
10878.9550000	0.7610254
10823.4030000	-6.8337428
10780.0710000	-23.1022480
10736.9810000	-6.0329154
10710.7160000	11.8559090
10651.3270000	3.2264255
10611.8730000	-4.6008985
10547.0920000	6.4242885
10483.9110000	-21.2587170
10439.6170000	-4.3080457
10378.3020000	4.2071334
10341.2470000	-17.3418570
10279.1590000	8.6313911
10236.0320000	-3.5985630
10183.7000000	12.2114320
10138.2440000	10.7194920
10093.3370000	-2.5084013
10078.2400000	9.6168446
9993.3140000	-7.8590148
9964.2331000	-18.1829750
9933.1510000	-3.9488892
9883.4640000	-18.8977160
9813.4829000	-9.6864024
9760.7041000	14.7795650
9717.6893000	7.4955635
9709.9629000	22.5861810
9630.0811000	0.6192516
9591.0805000	9.6419088
9535.3318000	22.7427920
9483.0651000	-9.8236127
9447.7255000	3.6348035
9415.0658000	-18.8284240
9377.9199000	11.7451470
9315.6037000	-6.5418645
9304.0672000	4.1623397
9222.9306000	-0.2234855
9218.3282000	4.2293170
9172.9414000	-17.4044830
9109.2364000	9.6874497
9078.8026000	-12.6121030
9031.3612000	18.3445340
9001.4927000	-2.5884403
8948.4784000	-12.3854980
8875.4148000	-7.7630522
8873.9821000	-19.8918100
8801.6101000	-6.7135829
8791.4190000	-8.1580265
8755.3239000	-3.9593058
8706.3603000	-21.7495340
8644.4432000	10.4802000
8624.0824000	6.0773002
8554.0582000	-7.1720512
8548.7813000	20.4943800
8507.5611000	2.8200122
8440.8486000	2.8941547
8395.1293000	-23.2718180
8350.8470000	-7.0323792
8314.3256000	13.8996550
