jMRUI Data Textfile

Filename: dataset27_WS.txt

PointsInDataset: 2048      
DatasetsInFile: 1         
SamplingInterval: 2.5E-1    
ZeroOrderPhase: 0E0       
BeginTime: 0E0       
TransmitterFrequency: 1.2322E8  
MagneticField: 2.9E0     
TypeOfNucleus: 0E0       
NameOfPatient: dataset27_WS
DateOfExperiment: 
Spectrometer: 
AdditionalInfo: dataset27_WS
SignalNames: dataset27_WS.txt;


Signal and FFT
sig(real)	sig(imag)	fft(real)	fft(imag)
Signal 1 out of 1 in file
209.2460000	-89.7154860
362.0393700	-176.5507700
229.2231600	-305.6448300
44.7836810	-331.7620600
-94.3805050	-278.5217300
-188.7229100	-161.0242500
-207.0592200	-38.2824350
-145.8592400	81.4183170
-50.6585580	113.8274700
53.4562850	100.2486400
103.1641000	36.7392680
103.7488600	-38.8357680
41.3230400	-91.3990400
-10.6297920	-108.9412900
-78.5228840	-85.0888750
-89.2656730	-33.1330390
-78.8814000	19.2714150
-53.7580030	45.4638090
-10.4762910	45.0252940
7.3485958	9.5080379
-0.5576002	-16.3514390
-25.4228840	-29.4276590
-45.1311620	-28.8454830
-73.4293360	1.6927551
-70.4677330	45.4469810
-49.8642320	88.2092180
8.6134289	82.7086710
51.0251520	74.8136460
82.1340260	34.8002750
86.1568140	-31.1419340
54.9787500	-73.6791940
-5.1706622	-101.0560100
-54.8615870	-91.6826170
-86.1744480	-50.6492200
-116.7001300	4.4368397
-91.4023160	69.4564230
-38.6990380	109.2138900
11.5098970	115.9130700
72.5589890	76.3833330
96.2653710	47.5598660
94.2344920	-12.8438930
66.0630800	-51.7346270
42.9862640	-68.8981560
-5.7741612	-69.7778840
-34.4373530	-52.3350440
-40.9540740	-3.3385932
-32.3012130	23.0704820
5.8541225	25.5927090
17.7089420	28.7538350
44.6889720	-2.8953878
35.9080070	-39.8519340
11.4214180	-46.3781910
-7.5159651	-71.6091540
-45.2105750	-51.9442870
-78.0723540	-23.5835690
-80.3345340	26.7324210
-43.0863610	63.0162850
-14.9081790	78.4126760
18.7989290	78.4383230
53.3828740	41.0085170
49.3948410	10.8059590
44.3409210	-30.6744700
16.5464130	-28.7553600
-17.1796680	-36.6670820
-30.1055870	-9.1508094
-27.3601040	13.5806530
-12.0892950	24.3655140
-0.9361789	46.3927650
31.0680820	30.0970090
41.2889870	5.1403733
38.0621620	-32.8874470
11.7047440	-43.7570020
-0.2534673	-49.2856580
-38.6140330	-27.8379770
-38.3603120	-13.8565980
-31.5992670	3.2362572
-11.1845500	15.4609580
-2.7464405	13.4976350
11.4764960	8.1477180
5.3509842	-11.8872140
-14.2518150	-29.2583210
-34.0749210	-28.4045950
-52.2513590	2.7867877
-39.4439020	18.2894130
-26.8657340	55.0528120
-8.8177389	61.0984120
30.8038830	56.9600680
63.8057040	42.0462230
62.8082170	4.4160051
68.6194400	-20.2913570
42.4165020	-49.6150080
-1.3022103	-53.1704720
-28.1512060	-32.7732780
-39.9632580	-14.2503190
-36.5199670	11.9164380
-16.8351070	18.4525130
5.9637025	19.8999360
34.4316650	7.4353372
30.9743050	-8.5959116
17.9255870	-23.9655430
18.6453880	-28.8757660
-5.6892436	-39.1282750
-26.9215040	-32.4270890
-27.0710390	-18.0771660
-22.9893180	-4.6964640
-16.0688890	20.5862540
-16.8393580	23.1707690
0.7785651	11.6636750
-5.3319158	3.3160074
-2.2084142	7.6657096
-10.1419380	-3.7003741
-18.7150440	15.2065310
-16.2214030	20.0603040
2.9504878	32.5455820
7.6835675	22.7851000
17.5444980	16.2151650
37.2011820	-4.3015497
16.7827870	-14.3692300
13.7202090	-31.9830320
5.6640036	-31.9134530
-0.7258647	-26.5644480
-17.8477260	-17.5409380
-32.3307460	-6.6069973
-26.3044900	10.5780730
-24.5831280	3.7855154
-11.2611420	16.2224900
-9.2575276	3.4521035
-0.7272518	6.3066465
0.4898596	7.4668325
1.5601597	8.4220000
-13.3116510	3.9885359
-8.8238201	5.9296923
-11.5744780	14.0105740
-11.2148370	7.0644404
3.2639346	14.4503070
7.8476272	19.5910010
13.4160280	1.4721099
29.0906090	3.6627239
18.5224290	-12.2286440
18.1643550	-21.4753870
10.3850080	-13.7029060
-2.1519425	-28.9584850
-6.2856878	-27.9581750
-11.8934470	-15.6585400
-5.6408483	-15.8567630
-4.9377896	-20.6108500
-12.5360630	-2.0630791
-10.3203580	-14.9425350
-25.2821290	-9.6426945
-18.4068640	-0.1078801
-22.7344860	-0.7812495
-18.3482310	5.4364486
-18.7278780	18.0989310
-10.0656490	17.3337660
-1.2396599	11.7626950
2.1761607	17.9221830
20.4533430	19.7151540
23.0890010	-2.8494947
19.9741040	8.8147664
8.3365410	3.2787398
7.7490552	0.8981961
8.9576253	0.9147782
0.5148438	-14.7733300
-9.4867873	-5.4750835
-4.0635248	-13.4196150
-2.8123978	-4.2535556
-7.6286782	-8.3765805
-8.0254491	-0.2462783
-8.5067540	6.4295831
-11.6598950	5.6095301
-21.6080360	12.2211480
-14.5994780	21.4502330
-8.0525142	21.4758570
-15.7065080	20.2208260
-0.3077839	21.5008970
1.0101444	18.8268180
11.3560410	27.5873920
15.7333290	6.5893635
34.7131630	13.3991560
35.2231530	-0.9131464
28.4644500	-10.6929940
30.4844260	-6.2978512
25.8634940	-24.8745320
17.6341060	-23.1542210
-0.7507859	-13.0826380
7.1724337	-12.6756720
7.4162220	-18.0798530
-12.5702840	-23.7217890
-3.3300437	-20.8131760
-16.0595920	-22.4489200
-19.8662160	-7.3206553
-18.6688510	-13.4870060
-15.7913350	-5.0141627
-26.6857380	0.7121649
-20.1104980	21.5828730
-7.9075311	13.7376720
-1.0819041	26.6507740
4.0734759	12.5324370
14.0775540	25.6412350
11.3640260	6.7135872
24.3577020	6.4312953
22.0514920	9.0821389
1.1569932	4.4474808
-2.8248461	-0.6102296
-2.9213181	-13.8111460
-0.2477657	3.0946152
-8.1279965	-8.7598428
8.1863385	-8.7657423
8.7930979	-8.3732730
11.6818720	-13.5949060
5.6180927	-0.7509420
-0.0214089	-20.2398380
-21.2097740	-5.0067759
-8.0410082	-8.6241061
-12.9787710	-1.6771172
-16.3769330	17.6516150
-2.6915702	25.6934080
-11.6757360	28.0759260
7.8814303	21.7587700
9.9048091	20.8928510
6.6416995	15.7139190
17.7512410	-1.1409808
19.9067070	7.9293762
9.4907422	-9.8577463
15.7619810	5.3985739
12.4876270	-9.8721442
4.3676749	5.2750850
18.7671970	-6.5486761
4.8596874	1.7814962
17.1318190	-14.0049180
-3.5722042	-8.1767860
1.7623086	-26.7912160
-4.4317492	-19.7157670
-12.5438960	-10.9173120
-10.4155190	-10.0898390
-22.0540710	-0.8596072
-0.9667604	7.1328879
-3.1976562	11.7037910
9.0014936	6.9418611
6.3971391	3.5078926
11.6741240	2.4928069
-4.7762871	-16.8136600
-10.5240570	-14.5150840
-6.9506546	5.1379461
-18.4027350	-0.7020130
-10.5803770	8.8848336
7.8823302	4.6498777
2.6562208	7.6218387
16.2568630	-1.8704391
19.6041970	-11.3926890
15.4647360	-18.4380920
1.6222326	-9.0694707
-17.0060090	-6.2833331
-6.2077147	-8.7491256
-20.0201430	2.6524717
-13.9418200	21.8678730
-9.1378352	24.3036600
6.5323315	5.4230848
18.8140240	18.5460680
20.1131530	0.6785920
9.4630732	4.2021376
-8.1239444	-11.5996310
-8.5468256	-1.7399336
-14.7725160	-6.2036501
-7.7838076	4.9776980
-6.1126124	21.7078680
10.8439940	9.4414521
6.4322403	8.4531215
13.9421700	13.6985940
24.8533650	-4.8610180
18.0083030	-9.4764669
-1.1872549	-23.8898640
2.2077662	-19.9452220
2.2262295	-8.8419766
-7.5418195	3.0705242
1.7109767	4.5241841
-4.2887316	2.9318079
9.2592841	1.7260476
1.7621392	4.0656100
12.3653440	-10.3827560
1.2765301	-12.6599080
-15.7619720	-17.8752830
-4.9219648	-10.6725970
-10.7963040	6.0387442
-4.4373566	11.8404930
0.9482320	-3.2542572
-9.2026898	15.8171400
0.0606038	-2.8543816
8.5838734	1.4825144
-9.7452539	-8.1877601
-7.0344977	7.0189652
4.2891452	7.6738628
-1.7913139	-0.6145733
2.3202024	3.9043654
13.3010570	20.0108950
12.1331980	1.9025325
18.0143380	-3.9518902
23.1794010	-9.5546776
18.5373210	-6.5262070
9.2415401	-16.1345540
-7.5778754	-10.9690700
-16.5981720	-19.4644050
-15.1151370	-5.2548964
-16.7783820	-8.9802176
-20.0680580	12.9167430
-14.5500920	1.9978575
-12.1543080	11.8780760
10.3692940	9.5844935
4.3974310	-3.5327369
4.4125458	6.7821693
-4.5832276	11.3628240
1.3984095	1.2642256
-2.7763690	15.7842130
-2.5650939	18.2325860
6.1520483	14.6852480
3.9308891	19.7779050
17.4589100	17.7876100
14.5498080	10.8747930
20.6426600	-10.7855650
17.1822970	-5.1928368
13.6216090	-10.6729870
4.2011606	-17.0369510
-1.3291161	3.3202036
-0.3280890	3.2838039
7.0484603	-4.7692786
5.9043529	-12.7429560
7.9077539	-0.9691233
7.3468447	-5.8791095
-6.4274319	-8.2317704
-4.6574131	-18.2400650
-16.2615300	1.1800862
-12.1844010	5.2525807
-2.3375162	4.4468671
-12.3401640	12.7640410
3.3691938	13.9861610
7.9644458	6.1190554
15.8669090	8.2106557
4.4652015	-6.9052157
2.7971596	1.9929827
11.7947080	-12.5492130
8.3907020	-6.2914766
3.9296853	-5.5379480
-0.6721703	-13.1051420
-5.9271440	-9.3891931
-6.8087965	-8.1368056
-0.3375899	-15.5960820
-2.1863200	-11.6870970
-19.9320730	-10.2152620
-25.4039640	-0.1094737
-23.8650810	-0.5980056
-15.6077280	11.8210330
-3.1486684	9.3750980
2.6662451	22.9358270
11.0222760	18.3855780
21.9306910	15.1313920
24.8869790	3.7425663
6.2159459	-5.0908384
1.2825973	-16.1865950
-5.7845306	-14.4478890
-4.0183678	-0.1477177
-13.2602290	1.0425262
0.2622462	2.0963845
-0.1966381	5.2601490
7.3508680	7.7675122
16.8523070	-8.7917608
4.0993575	-6.5591941
-0.9485255	-6.5770668
-8.6458572	-16.4359500
-12.4393400	-8.1860261
-5.6533356	-16.2952350
-28.2750950	4.5465242
-27.6173920	6.2328344
-12.0051570	4.6214281
-11.6800270	7.8412949
-11.5018730	9.9719895
2.2064855	6.3000092
-1.1463535	5.7723662
5.4189933	2.6153486
-0.2923392	10.6171850
6.8220418	15.7460510
2.2726359	5.0824781
4.7148747	15.9110200
10.5315890	12.8041650
19.1694540	6.3646248
10.5689780	-0.8370530
20.9077640	-19.0554490
11.1178790	-9.4788243
-7.9339153	-14.7371930
-14.9239020	-13.2403620
-8.2326854	-6.7755213
-2.4836425	4.6687952
2.3837732	3.3393718
12.2140780	8.5169869
18.9413810	13.4251720
10.6870370	-8.5288588
5.1613469	-5.0279241
-5.8030722	-11.7434580
1.9619006	-9.5114554
-14.5381070	-10.6467670
-8.2676549	0.1545086
-8.8491546	12.3261170
-1.7110323	3.2521739
1.1600566	4.5317701
22.8215260	2.0308287
24.1366470	-0.4728435
6.6951912	-5.7778077
-0.4388677	-15.7948690
-11.9421790	-23.1537410
-6.8875174	-7.2499831
-24.0522030	-6.0487266
-4.8787066	11.6965530
-6.8327336	15.9681720
9.1703603	14.5766810
8.2843987	1.3449163
2.7631023	1.5297504
2.6160983	-11.1207460
-13.4137730	-20.3616240
-12.1164630	-5.8053846
-17.7500850	3.9202957
-14.6764960	4.7288247
-22.7634040	24.4774700
-10.8235170	10.6423070
3.0457091	12.3008770
14.3556010	10.4349460
10.4343640	13.2473940
0.8775516	-0.0268273
9.6253993	-13.4613480
-0.1784667	-10.8778090
-12.8008410	-2.8806177
