jMRUI Data Textfile

Filename: dataset11_WS.txt

PointsInDataset: 2048      
DatasetsInFile: 1         
SamplingInterval: 2.5E-1    
ZeroOrderPhase: 0E0       
BeginTime: 0E0       
TransmitterFrequency: 1.2322E8  
MagneticField: 2.9E0     
TypeOfNucleus: 0E0       
NameOfPatient: dataset11_WS
DateOfExperiment: 
Spectrometer: 
AdditionalInfo: dataset11_WS
SignalNames: dataset11_WS.txt;


Signal and FFT
sig(real)	sig(imag)	fft(real)	fft(imag)
Signal 1 out of 1 in file
102.1153400	-36.9862430
184.4538500	-61.6821140
149.4256700	-115.9635600
95.8039960	-146.6494800
39.8879750	-155.0809400
-11.5111440	-145.0790800
-45.6298460	-115.6916100
-70.7185090	-72.2183260
-69.9986110	-38.9169010
-54.7403040	-11.2508980
-31.4286560	9.9457486
-7.6780561	7.1124275
4.1462210	0.3030917
12.3061230	-14.5506610
5.1993035	-34.5860680
-9.8475451	-44.3281070
-24.5885260	-47.8878380
-41.6467260	-34.7636540
-57.0028340	-14.2083880
-55.9848770	6.1904614
-54.5370360	23.3284650
-32.7109130	38.7616430
-16.0602800	52.0375900
5.7031183	47.4925040
23.3727620	27.2640920
29.7587460	15.2182040
35.5688200	-5.9310272
22.9809590	-20.2313310
5.8544078	-27.9854570
-17.4749670	-27.3013510
-26.8785660	-22.1500620
-38.3983700	-2.9013927
-37.7388050	20.8491210
-23.9422820	32.3651410
-8.9699378	39.6107170
10.4611070	46.4085080
26.3045930	38.6472950
41.9068830	18.9874970
40.0598790	9.5681211
36.2078620	-7.8612837
25.1037760	-22.8024420
14.8142420	-26.4231430
3.5724255	-25.1456430
-2.4655875	-17.5515700
-6.9249710	-6.2098940
-2.5520655	0.5959325
0.1814690	4.5978520
10.8290050	-0.5544077
12.7185380	-2.5727706
17.7917050	-9.2105043
10.2643600	-19.9045750
2.1508720	-24.5399400
-11.7835990	-25.4816690
-21.2679680	-20.9576880
-28.9379550	-8.9129728
-34.5372740	4.4072646
-27.0226570	18.6391420
-16.5509040	27.4019600
4.3452973	32.0659890
18.0890050	23.5115660
30.4160220	15.1849370
39.7765140	0.6671620
30.5614940	-23.1710690
21.8773830	-33.9522430
4.4244239	-38.8516630
-10.7752590	-44.7363180
-27.0929860	-36.2449260
-36.9397380	-24.1292770
-41.6401430	-2.7446560
-38.2814560	10.4362250
-28.5934220	23.3241730
-16.4180800	30.2345620
-0.7282015	25.8106460
7.9353427	17.3347900
14.3495210	5.1174008
11.5044180	-0.8225189
6.4141330	-12.9171480
-9.0848714	-10.4727910
-18.9087720	-4.7883782
-25.6862330	-0.9038811
-19.3178830	14.6162860
-19.5823670	22.5871630
-4.5320713	34.4594350
3.3020052	28.7350450
23.1655620	22.7706890
32.1466110	13.5128180
28.0772030	1.2934935
25.5334640	-11.3874960
15.4848590	-24.5383700
6.6966863	-27.5749570
-10.1894920	-22.4769490
-19.2158000	-13.3998930
-24.7009530	-5.3664966
-19.4779590	13.5643890
-11.8191100	20.4982670
5.1075548	29.9891110
16.2923350	21.1992090
28.4767310	18.4243960
31.8777650	4.8645154
32.0456790	-14.6703410
29.6937180	-29.1334130
12.9323640	-32.9457980
0.3066859	-37.5350910
-14.8107680	-37.4451210
-30.0558170	-19.9524990
-31.9104250	-8.1770914
-34.7703140	3.6247732
-21.3559890	15.7090250
-13.0230720	19.0414310
-4.6991450	19.2904810
5.5433179	17.0316180
14.6211650	9.8872021
10.5675900	1.2067003
8.9799609	-3.5763683
3.0998919	-10.4776770
-5.1633958	-8.1177344
-8.8770270	-0.0513660
-8.6143320	2.4580287
-6.7411081	11.3659590
0.0674102	19.7048550
5.1276890	14.0824370
16.4044110	10.4940410
21.0919830	2.5607715
19.1750780	-6.4153949
13.2885330	-19.7883950
6.5452397	-22.8890700
-6.7754492	-23.6956350
-20.2826330	-21.9062330
-22.5194490	-17.3410410
-30.8062170	-1.1429416
-27.1891140	12.1151920
-18.9520840	24.9913560
-12.6198700	30.3868920
0.6604622	30.2847290
17.3623090	25.9717380
22.8932570	20.5568820
28.7926640	9.7476508
23.3609530	-1.9608000
20.9828560	-11.2342100
8.7716717	-15.2464120
3.3456135	-18.1529740
1.4495268	-9.9923192
-1.9382257	-4.6703072
-1.8152494	-2.4992646
0.3310707	-2.7450674
-1.0636740	-0.7621040
3.0454060	-0.9842167
5.1622588	-10.9859240
4.5971419	-15.0276410
-0.7125291	-13.3738640
-14.0718620	-19.1870180
-20.3669300	-11.2848060
-24.4822980	-2.6220851
-28.5549610	6.2346614
-23.3546010	13.8587870
-16.8915530	24.5803470
-4.4049973	23.4062000
2.1665627	23.7776230
16.7459620	19.1361110
21.3415210	12.6584890
23.7801220	-3.2960758
16.8443310	-10.2282540
13.5143370	-21.6280950
-3.2849839	-26.2855170
-13.0999640	-20.6145640
-18.7396280	-10.0931150
-26.0248640	-0.4428661
-22.8543050	6.3576266
-21.3493800	14.4330150
-14.5703030	24.7609880
-1.5213686	28.4763480
8.9440043	25.4553720
12.6926900	20.9197780
18.4572840	13.4566100
17.8482360	9.6672280
13.1346500	3.8093142
7.6791284	0.1456942
11.0754990	3.8681276
10.1778030	3.1753901
14.4279800	4.7644056
15.7714220	5.7692034
15.9684740	4.8609008
20.1924540	-1.6072195
26.5915510	-9.3373943
18.3398670	-18.8554720
12.6320010	-22.3838550
4.9317047	-30.2726640
-6.4683740	-29.8962930
-11.2458250	-28.0828700
-23.0282300	-22.9137860
-28.6145560	-13.3580180
-25.0563660	-1.5836898
-22.8063830	11.7492780
-19.1484650	18.6952590
-9.4157991	18.2419440
-1.9645722	17.1899190
7.5699222	8.3298687
13.0010170	8.4745463
10.3704310	-2.0950137
8.2489962	-11.2588800
0.4972266	-6.9746768
-2.8193505	-11.6459510
-12.3472400	-6.6990184
-15.0759110	-0.7152246
-11.4842000	9.4784471
-3.8918558	14.2411330
3.8841019	14.3794720
2.8272975	11.7299130
10.5042570	0.3275407
11.3527360	-0.3747998
9.9993598	-8.5999672
-3.0435648	-9.7598080
-9.7850619	-12.7206770
-14.6056410	-4.0368217
-18.2569300	2.4903512
-14.1068740	8.7387533
-15.7279320	18.5562430
-4.9879705	21.0356770
6.9663506	25.4127710
14.5949060	26.1745450
24.0992990	13.5829000
32.0853470	7.1089222
29.2096370	-8.2744199
19.9642270	-16.8110190
11.4959730	-20.0155560
4.2425504	-25.3548170
-5.9212984	-23.7807220
-11.1208480	-15.7403760
-12.5203930	-6.1616300
-14.0698910	-4.3088085
-7.7100343	7.4162175
-3.0586252	8.6269721
0.6752760	3.8256222
8.8392528	5.6928764
9.0634185	0.0647120
10.0450310	-2.4580896
6.8128098	-6.4324825
3.7555977	-10.5636900
-0.6381343	-7.1158328
-3.9327589	-9.2071734
-4.6376929	-6.1546105
-2.7764651	-4.5681892
-2.6834265	-0.8185268
-5.0671183	0.7840441
-0.3966085	-1.3054370
-2.1147872	-3.3203238
-1.9322998	-5.1498346
-1.3012672	-10.1935810
-5.9801762	-14.5440380
-14.5217440	-5.5288817
-15.7058390	-4.3297898
-17.6304120	6.6009324
-17.5725060	8.1630937
-19.0291350	18.2379000
-6.3105154	25.0178510
-3.1501354	23.3470940
10.1745070	23.3549700
9.5608139	15.7894670
14.1680590	5.7115586
15.9999640	0.2239236
16.6418740	-2.6898285
8.0879627	-3.8651306
4.4569956	-9.7170983
-3.5204918	-6.7046016
-1.8096306	-3.3275533
-1.8805183	3.4044834
-2.1752855	8.9380315
0.1287756	11.0704390
11.3653360	2.5866793
12.9631960	3.4940852
8.8257325	-2.4897480
7.4606010	-10.1250180
4.7018521	-10.5650430
2.7662900	-16.8522750
-0.7045162	-8.6372601
-10.6761530	-6.4232187
-12.3258060	-6.4239431
-9.9682470	1.3596775
-6.4883403	7.3901870
-1.3747668	4.7442911
8.3405058	8.4862518
6.8443904	3.4178220
9.0948197	-4.6013339
11.9637860	-11.0408550
2.3526684	-13.9077460
2.9736462	-13.8140530
-9.7157274	-13.4180140
-10.4975270	-9.4417628
-13.5584190	-4.8118026
-20.1685690	0.3667154
-18.2603810	12.4114040
-12.9362030	12.6856920
-1.6883297	13.3220010
2.2808738	14.0589380
7.7944272	10.5905480
9.2862143	8.9492584
10.9520360	3.1837489
12.6985270	-1.2414345
10.2383340	-8.4493099
2.3710894	-12.9419250
0.1502026	-11.0560670
-7.0561124	-8.7290340
-5.9486676	-2.2837785
-7.3142077	-0.0119063
-1.8732727	-0.0016367
-3.5772670	4.2536759
-2.0167903	-0.5539664
3.0690658	-0.2992386
1.0254363	0.4312278
-0.3548751	-3.6067534
-4.4224222	-6.8706500
-7.1505889	-2.4359119
-6.7472523	4.7962054
-11.5344290	2.3465422
-6.9514792	13.3315380
-5.3824497	12.1867310
4.0669666	11.7097540
11.1687440	9.8337676
9.3890978	12.1631240
15.1601000	2.1581290
12.7902870	-2.5822748
14.0687680	-10.8842510
8.1296727	-12.5890240
7.2282190	-15.8185840
-1.8443812	-13.6698090
-2.9885962	-9.3841620
-6.8450620	-7.1809916
-7.2817498	-0.7822387
-3.8862571	0.4673983
-2.3169759	-2.0406224
-4.6069514	4.2772274
-0.1826365	0.1011737
-1.1032226	-3.5917549
-1.0554907	-3.7389825
-5.4029041	-0.6918621
-4.6595792	-0.2424765
-7.8274237	2.8201322
-10.8349130	2.0342156
-4.1737944	5.3144108
-1.8554713	4.8067959
-4.6926639	7.9096369
-0.8238323	10.7400950
1.4205068	3.9173499
2.0482269	-2.3640179
4.6489343	-2.1652872
4.6646168	-7.1697638
-3.4939522	-6.5867821
-7.7210864	-7.2589225
-7.3023094	0.6109148
-7.5644115	2.8919116
-8.8219638	3.9868311
-5.7604340	14.6365850
0.9431421	11.5716580
2.0348643	16.7759660
12.0754300	15.8385990
9.8044868	10.0683440
14.3800080	4.5359695
17.1926300	-2.3424879
10.0456260	-9.7518407
6.5103673	-12.6251090
7.0463528	-13.2754890
0.4581485	-10.6350950
-0.3626257	-9.1412615
-6.2587997	-3.5182655
-4.2945907	-7.3707999
-3.7541743	-6.1368273
-1.1965753	0.9120417
0.8440608	-3.6619023
2.5966720	-7.3781388
1.0500646	-2.9389560
-2.5901493	-2.3387179
-4.4982222	-8.7054684
-5.5555234	-6.7775641
-8.4139617	-3.8976612
-11.9624710	7.5565702
-7.3491352	8.4189805
-10.3938800	16.1077420
-1.1153727	13.9500160
0.9882524	12.4245290
7.5033330	9.1364745
14.2742770	4.4471548
15.7073480	1.7828998
10.2957780	-2.5002696
13.2198380	-12.4036300
2.0845241	-13.2045620
-4.4877169	-9.6342507
-2.5134268	-8.0073674
-10.7725030	-8.3448395
-12.8066870	-0.1383970
-7.3031939	5.3516924
-1.9842722	4.1407785
-2.5627244	11.8519430
5.2022783	6.5161678
5.6010698	8.7335253
5.8300591	3.0094573
7.3295058	-0.0633558
5.5034070	-1.5988880
4.7064290	-7.7411105
-2.8776271	-5.4905493
-0.6040887	0.4268143
0.6132647	-2.9411663
-3.4843444	0.0345659
-2.1934153	4.1387159
3.0551398	1.1870704
1.5966774	-0.6048180
7.3950265	-3.2662241
2.6490211	-0.4422005
2.8460701	-3.7480327
1.3031968	-8.2646664
-0.6218675	-3.7055403
-3.0828866	-7.9146877
-8.6397398	-5.4432980
-7.1912979	-0.4184058
-3.8117514	-0.8591260
-8.4471739	7.9051981
-5.6306688	8.9757664
3.1512930	2.9143016
3.8775627	2.6740810
3.9914365	2.0491111
5.9614316	2.9065780
5.8749368	-1.7735102
6.5867294	-3.2477485
0.9750606	-1.4442268
-1.1250187	-0.6230518
-5.8720356	-1.6496449
0.8412802	-0.8666203
-5.4887715	-5.6636088
-3.5906082	-2.6640616
-0.0013689	0.0319602
0.3246350	2.2016348
-2.8051607	2.3780979
-3.9162429	2.9413171
-3.7859744	4.8010170
