jMRUI Data Textfile

Filename: dataset13_WS.txt

PointsInDataset: 2048      
DatasetsInFile: 1         
SamplingInterval: 2.5E-1    
ZeroOrderPhase: 0E0       
BeginTime: 0E0       
TransmitterFrequency: 1.2322E8  
MagneticField: 2.9E0     
TypeOfNucleus: 0E0       
NameOfPatient: dataset13_WS
DateOfExperiment: 
Spectrometer: 
AdditionalInfo: dataset13_WS
SignalNames: dataset13_WS.txt;


Signal and FFT
sig(real)	sig(imag)	fft(real)	fft(imag)
Signal 1 out of 1 in file
246.0645300	-88.6131290
422.8615400	-173.0448600
288.8883700	-311.6678300
122.6288000	-358.1026800
-38.7155360	-352.8897100
-135.1047600	-239.8981600
-166.3508700	-147.4275200
-149.1219800	-36.6773790
-125.7936500	23.5046380
-38.6718890	62.9851560
-2.7634207	34.6897870
47.4382370	-15.1427940
42.7389770	-47.9391290
15.0525320	-66.7186630
-30.9905010	-65.1376640
-54.5122120	-50.5989870
-53.9174310	-27.9779030
-98.5580810	-16.3707800
-92.3788680	-22.3460960
-67.6450300	30.9818940
-51.9228630	39.9591960
-58.5511470	42.3120900
-52.7929500	50.7776260
-15.0307490	67.7520970
4.2201556	41.9719790
20.7503930	52.0869460
53.4074580	-5.4555385
18.4119890	-9.4129839
15.8687690	-22.4737260
-29.1235530	-42.0814970
-48.3876610	2.1320631
-53.8936740	17.9550220
-40.5824660	53.7777340
-25.8148290	53.6064040
-16.1845090	75.9846100
46.5265510	87.6685350
70.6018920	61.8349720
48.3884540	23.9587860
52.5039400	4.2735933
69.2783440	1.6966261
77.6791720	-22.8782290
63.4753240	-33.3814440
29.2426870	-33.1385400
16.9886650	-35.4132210
-18.1099320	-39.7276710
-12.2898000	-38.9578740
-30.4735830	-2.3694592
-28.0662940	-15.9502410
-10.6008840	8.7052960
5.3981148	-12.6292040
-3.1859701	-13.2775900
32.5707870	-4.2847614
-12.5321690	-41.5014150
-26.4856220	-40.8054760
-21.5115020	-29.1533160
-67.7702450	-21.0051220
-34.7428430	18.2306170
-18.8424320	56.8870040
12.7797610	63.8649370
47.3346780	30.4205340
54.8259160	18.7048980
66.2022810	-1.9914227
46.6615310	-43.9052300
13.8154210	-59.6197970
-5.4886187	-74.3575590
-28.1139660	-51.8354170
-29.6462820	-38.7181190
-66.1111100	1.3926260
-51.9245240	-9.4548101
-57.3132470	17.2062660
-38.1002550	30.7031180
-12.3560790	34.2385920
-0.4536419	33.9371220
-8.5177573	5.3179237
13.9305470	4.1356725
21.4933400	12.1348530
16.7250440	18.0084660
-10.0665470	10.6872500
-5.7083662	-15.1471680
-7.6573180	-24.9160260
-18.0296260	-3.6544116
-35.3679080	2.0739201
-32.3209410	10.9553980
5.6391346	42.7647610
-4.0581226	33.6198220
49.8317680	27.9870470
35.0323390	11.8955180
56.4918860	-13.7726100
12.5389600	-22.0163210
-8.8024742	-27.6767600
-30.7476170	-24.8695000
-20.9522760	-30.4194300
-15.9336450	-2.6511525
-15.3835160	37.0482010
5.9253880	17.4266050
14.0400830	36.7580620
12.3612990	25.3635260
45.6162470	24.5200770
25.4944600	-24.8354320
57.8862710	-45.8496660
29.7660680	-19.9452640
19.1711650	-65.6349410
4.5141683	-60.4692190
-34.5435090	-51.0615810
-27.2829040	-37.7649180
-58.1530710	0.0842100
-36.6928270	15.4891630
-53.8486540	4.3126554
-36.4650460	18.7570260
-17.4512850	48.8065980
20.9349230	46.4027860
15.1762750	26.7735920
4.8461535	9.1045481
0.7331848	-14.7277870
1.2855506	-10.9004420
1.2677939	-29.6157260
-15.4846470	0.9780049
-13.2092260	23.5402460
-10.9796090	33.0537770
9.8448991	3.3975202
18.0950130	24.1519090
42.8894110	0.1041330
39.4461940	4.6004982
39.7387890	4.1409535
35.7171920	-3.4833497
13.0168520	-11.7477080
5.5789716	-12.5570870
-8.2422936	-18.6216230
-45.0290370	-8.8951872
-13.7671650	3.4864685
-26.2744220	-3.5686988
-29.4548930	27.5946280
-23.1021530	42.6036310
-8.6358782	30.8708030
-1.2715829	26.4676290
18.9721520	25.6409090
33.1608480	28.2156360
16.2890950	0.2267277
32.0840780	-9.2420192
36.1660700	-36.7560230
-3.1964980	-10.5053580
18.6123040	-38.9662300
-7.8534992	-11.4037590
-15.9588440	4.9623487
-10.5474320	-17.7463490
10.4281410	0.3103901
-2.3591018	-2.7331688
13.5447780	-20.9523390
-0.3940605	-2.0216709
-14.2186440	-23.0388130
-17.8743130	-30.6267690
-8.1399037	-3.8959799
-12.9655890	-24.4233800
-31.1249420	-9.6319129
-36.6416400	-3.2339388
1.5032110	32.3157980
8.9074567	38.2750220
-11.3946790	41.8301220
27.0126910	7.3314691
19.7948110	5.0570379
42.4241460	-20.5573660
37.8027200	-1.5774311
15.9487070	-18.3518090
-19.0022480	-14.7399630
-8.1890180	-32.6612440
-31.6195300	2.9420077
-10.4068390	-4.6580766
-32.5831000	25.6366510
-27.3467740	18.6295430
-21.2785140	11.8549630
-1.0560102	27.7187970
20.3419720	28.5631970
5.2989291	39.4647260
27.4138820	22.8441200
23.4079700	10.3270540
39.3471270	0.1586746
19.6494050	-14.4960820
10.1398440	16.1036530
-0.7919238	14.5070590
7.4360941	6.2412469
6.3741249	15.3551170
14.3327680	7.6204438
22.8704810	-21.6862290
38.3540320	-33.9517360
21.9466500	-34.2857140
16.9585950	-14.6058730
20.8352310	-21.7664810
-20.6839630	-16.7664840
-30.6571830	-19.4635830
-6.5295693	-22.0377710
-36.7494610	-4.2258955
-37.4096590	3.1932879
-28.7853930	-9.1908389
-16.7420850	4.7821875
-9.2580365	29.5538330
-13.6486850	3.6882653
20.8713630	31.4209910
-9.0869848	3.1811984
-1.9517275	-1.6981538
16.9412040	-0.9894288
21.5490200	-7.5525841
13.8790490	-5.4155728
-25.9784690	-1.2414422
-19.5265340	4.2738268
-19.1411930	12.0601280
2.3660900	-4.1595170
-6.3887050	2.6722068
8.5501459	5.9300241
-5.0717330	12.6910410
-10.5756390	14.9426250
-11.9816110	7.1589732
-16.4389140	8.9141589
-15.5558980	-14.0392400
-9.0371303	16.4097950
4.7982499	0.8005488
0.5125508	7.3297588
14.7723030	-2.3227019
-17.1382450	16.8538640
28.0671080	12.3941140
2.3435417	33.9543190
13.9267940	19.5503360
21.4963490	9.4524358
31.4678870	-1.1982349
7.1970264	-31.3361300
10.9742840	-39.2165150
9.5365126	-13.6137230
10.1920320	-14.8453200
-27.8567260	-6.1086434
-25.5807870	-15.8867750
-24.2965260	9.3769678
3.9269941	15.7502470
-2.0265887	25.6863460
1.5507044	19.5796940
-2.6614564	11.3053080
5.4505257	15.9355910
1.2433636	-3.2999840
-6.1537487	7.7333914
14.2504130	-2.1490998
11.1172020	-0.6321551
-8.2843138	-7.6107332
15.5570940	11.1122750
-13.0998430	-13.9967090
-9.2729447	-9.7642890
2.2558580	5.3194249
-7.3145139	-16.0555170
-7.9483045	-9.0944630
1.5927300	6.4325744
-8.6136743	5.1355792
-5.1249808	-25.5491300
-1.9710112	-4.2238272
-31.7768390	4.5272735
-29.7035670	6.0602649
-38.2258160	-9.0793368
-1.9806871	21.3668280
-14.3641500	2.8336609
15.4483810	21.6281350
11.3946090	28.2786660
21.4782770	-1.5547158
22.6797630	-1.3076883
22.1802420	16.7945070
17.9687710	-19.5167260
-7.2707324	1.0796277
1.8211389	-25.6255480
-11.0489330	-7.8426132
0.2803274	16.9390760
-11.7472290	-0.9744304
-9.6618722	13.2565940
16.9342690	6.6736243
11.4698620	8.2920312
0.0670094	4.5774251
-5.9119204	-19.7683780
-9.1043066	-2.5651373
1.3195199	3.6893312
14.6203940	-6.6199804
1.9911858	-14.0022340
-14.5585600	-25.2562000
10.3793460	-19.3129910
6.5178608	19.6596970
-21.1446060	16.9296240
9.5240459	12.3007830
1.0218963	15.1967190
8.2628772	14.0359460
-3.8994585	1.4056055
0.4990762	-1.2125564
-12.5153110	4.2068966
14.3194010	-12.8302430
-1.3080625	-32.5363040
-6.3415171	-16.4233790
3.3091236	-16.9398400
-8.1959951	3.6496277
-14.7565580	15.7775050
-8.6978566	26.5407590
1.9636487	16.3066050
-7.8294733	-2.0225886
0.4558957	23.5432930
12.1792270	8.2589841
23.4283200	-2.7301690
-0.1574058	-3.8918628
26.6664550	-22.0021280
19.2086000	-10.8872910
17.6222980	0.8354153
-22.3078200	2.2597481
2.6708868	-17.2469100
3.8966654	-23.7900530
-11.8971670	6.8265169
-15.9639240	-16.6984080
-6.5149024	5.2590903
-22.4049390	12.2590970
-18.7600140	-9.0834934
-16.9092260	19.8391490
5.7601290	-12.1689170
12.4577890	9.0353335
-9.0814129	7.0008352
-22.7489130	8.9434082
2.1245811	-8.5834846
12.3532930	27.6344320
-10.0568970	6.8290607
1.0654867	5.0707063
3.8953457	13.9866200
13.8276010	-13.4317670
25.5053800	-18.1591510
27.2690420	-13.9808810
24.7907970	-16.5353530
21.3425740	-29.5538000
17.2022250	-25.9004450
-2.6840176	9.7086132
11.8566800	-11.7918590
-11.2045210	-1.9997152
-16.7231970	1.4458090
-1.1783560	-16.1254540
-4.4031879	1.9085049
-6.3653449	0.6843200
9.3234692	-11.8660430
9.0563674	-0.6374958
10.1491590	3.9972917
-19.9291710	-17.9478510
-21.5537540	16.3576570
-1.8008967	12.8709010
-19.3243730	9.3297130
8.5020738	16.9410250
7.7744001	-5.3071046
4.6730634	14.1495280
10.2291190	2.1251248
-7.7987606	-2.9526304
13.7674640	-15.8306770
9.8886864	6.8844081
-19.5174320	10.5742990
-5.2268961	-0.6572314
9.4241530	-7.8615138
-8.1395599	-10.2689860
-4.3990069	0.3481222
12.9296670	8.2106443
13.2147090	7.5387243
-2.5020491	23.0331130
-6.0686837	22.0413810
9.9881970	-10.6766440
10.4120810	0.8160424
1.8709351	-19.3297140
30.5168570	-1.0606189
-3.4829221	-25.5357520
26.0077650	5.0072845
-11.5123360	-4.2913072
-5.0147980	3.1601429
-21.1287310	-19.0320150
-5.0564370	7.9048728
-17.0300010	7.8136586
-15.6806030	-21.8234240
-15.1067330	-4.4445928
6.5764248	-18.3465800
-6.6621248	6.4162236
-13.8970270	0.6778995
-18.0636000	13.8431410
-23.2179630	-3.8947680
-12.4240730	-17.0327990
-16.0594130	12.5997050
-7.3898969	-10.3829890
-16.2029110	4.9141449
15.3626120	-4.3945676
12.9550420	22.8986000
4.9617222	28.3125170
26.6904610	-3.5871526
10.8312020	10.6478280
-4.7195960	13.0719150
26.1628790	-16.0674660
-0.6847120	-21.3142170
-5.2781336	2.4173025
-8.3678317	-25.4237950
9.6386151	0.4545050
9.8465494	-13.5082930
-9.8635050	12.8324070
-9.7816984	-6.1962287
3.6291470	7.8153550
7.1485159	-7.5152224
5.0267509	24.9957900
2.3481215	10.1803210
0.5380713	19.9831660
-5.6448123	-0.5146294
18.2755310	6.3130676
1.6907526	-14.8529020
17.3827440	-4.6541637
14.2859110	1.7806636
-1.8769203	2.6421079
15.8184010	11.4307260
-4.9007473	-13.7879350
-13.7048500	15.3813110
5.9224026	12.9979060
-0.0149660	-0.7308499
4.3678803	13.7914910
-6.0361716	-1.8231419
-7.8576018	-13.0534380
-1.7883171	-4.0057625
4.3051952	-21.9685990
-18.1238090	3.8562117
1.3957232	4.6253924
-11.1959500	-0.9040973
-0.2791987	-0.6632862
5.4554644	21.6831920
-12.7947370	19.8597290
10.8974440	14.7529100
-1.3286523	11.2627910
-0.1036121	-5.6932328
-11.6796730	-19.7839580
3.0515501	-4.0180422
-8.5725532	0.8623135
12.2473570	-4.1973750
-13.2778000	11.5669790
6.7858140	-14.3692330
