jMRUI Data Textfile

Filename: dataset3_WS.txt

PointsInDataset: 2048      
DatasetsInFile: 1         
SamplingInterval: 2.5E-1    
ZeroOrderPhase: 0E0       
BeginTime: 0E0       
TransmitterFrequency: 1.2322E8  
MagneticField: 2.9E0     
TypeOfNucleus: 0E0       
NameOfPatient: dataset3_WS
DateOfExperiment: 
Spectrometer: 
AdditionalInfo: dataset3_WS
SignalNames: dataset3_WS.txt;


Signal and FFT
sig(real)	sig(imag)	fft(real)	fft(imag)
Signal 1 out of 1 in file
262.6362500	-102.9239000
468.7762600	-216.7753300
323.5172000	-364.9211500
127.7549600	-415.3817600
-45.0459400	-383.3762500
-172.5617700	-275.1202700
-210.5773900	-138.9282100
-191.2315200	-17.9132500
-123.1586000	48.3721750
-42.3184170	73.5231800
21.1756450	41.3604300
46.8331840	0.0695903
40.6559060	-45.0670210
15.0856040	-74.9421300
-18.6515870	-79.9620680
-48.7628100	-68.9436660
-68.6493940	-51.8655750
-81.6322400	-23.1524540
-77.5341100	-8.5747175
-72.2273580	11.3674590
-66.8701830	30.9472520
-56.6392650	54.1165500
-31.4595760	60.3735950
-3.0295979	67.6258100
18.7820490	59.4633390
41.7955650	37.2683330
48.3731970	9.6636380
31.1826600	-19.2216560
10.2448360	-34.4802830
-19.8405140	-37.2411570
-39.1124460	-15.8804150
-53.2556890	7.6098707
-48.3037650	42.5491210
-26.3151810	63.9526930
2.7738057	71.0309870
29.6647950	62.7056580
50.8721870	43.3796520
64.4365750	25.4622170
62.3482380	2.0822506
59.5473650	-18.3769240
49.6122050	-27.3817180
30.9930060	-38.9954010
18.9786920	-44.2410750
7.2411779	-40.0940680
-13.0989260	-36.7361840
-20.5287720	-22.3001160
-19.6891330	-11.7415480
-17.2489200	2.9177397
-2.6261250	6.2623236
3.8263168	5.9878500
14.8583230	-8.1262048
11.8695410	-24.2089690
1.9478123	-34.0407520
-13.3642920	-35.6794670
-31.3092100	-28.8176530
-42.8337500	-9.8511548
-42.0468230	12.9425510
-31.3274820	39.3209140
-8.5031473	43.2222760
16.4978290	44.9599600
37.9740550	28.2762240
44.9995090	-1.1533716
41.3009580	-23.7410150
24.5410120	-43.0483250
3.9679863	-45.1683750
-13.9891330	-39.9344340
-35.2327650	-24.9443930
-37.5610700	-9.2414372
-37.5002540	2.4959467
-26.9637830	16.0953630
-17.6769960	18.2254080
-9.6544477	16.3031950
-0.1899330	20.0668770
2.3575151	16.5852290
7.3851920	10.5113450
11.7415070	10.8392720
6.4805045	-0.0346733
9.3527736	-5.1009504
-3.6005995	-7.1966471
-13.3368530	-7.3177877
-19.9072770	0.8514204
-17.0635780	5.6976824
-13.2562400	20.5177020
-6.5914052	26.7774730
11.1594300	25.8274900
26.0910000	19.7791020
32.6212630	4.0946027
29.4339560	-12.1148470
21.3641540	-24.0503210
4.0210475	-26.8522320
-9.4266225	-26.3531640
-21.9693260	-9.7285454
-27.3203100	0.9016238
-15.7836850	17.2788160
-8.9709162	24.8724800
6.4904834	23.4922160
20.2342020	19.4157330
28.8550500	6.2116444
26.2612320	-4.0717075
24.1493260	-16.0230680
19.8036040	-23.0630380
5.3540774	-30.5852650
-5.0489043	-31.1355530
-14.0656470	-24.6834020
-23.6564050	-20.8730930
-27.0551440	-10.0616340
-26.7719200	-0.3173993
-21.9890130	11.0867430
-17.9038980	22.0682330
-6.2518030	20.9323810
2.5019277	20.5692610
10.0726750	9.4500742
16.2823980	3.7030203
14.1423150	-3.4605260
4.1949949	-8.3564409
-0.5301187	-9.2797411
-11.6968220	-4.6312795
-11.9091630	2.5281124
-12.0523140	13.8120120
-1.9173545	16.9211490
6.2701802	13.1331850
13.8123250	10.8156000
14.0824290	0.1418100
14.1855160	-4.8332580
8.0873225	-11.3620910
4.9966889	-16.9474220
-5.2924615	-14.0019110
-9.7413511	-15.3959170
-19.4942920	-9.5122751
-16.5145890	2.2449693
-12.4422350	11.5220900
-9.8423128	15.5627530
-7.6325912	13.8821930
-1.3748986	18.8376750
8.0052865	15.0719330
9.6599610	14.7516390
13.9822350	3.0003213
16.8159770	-4.0604294
11.6429430	-10.1437330
7.1733206	-14.8744690
5.7635580	-14.2392670
-1.6931441	-12.5193470
-3.0342887	-8.4720962
-10.9113080	-5.8092524
-5.1905081	-0.6591598
-2.6242186	-0.4367649
-1.5924707	2.6512194
5.4378149	1.0625009
4.0451566	-3.9885517
-3.1872594	-8.3894063
-3.2506221	-9.6915860
-8.6661464	-6.0489313
-15.4733050	-0.7719800
-16.2088150	4.2900787
-12.9594430	6.9744740
-6.6350558	11.8954430
-5.3768352	16.2740330
7.1703782	16.8037460
7.0096989	9.0503964
13.3048730	1.8179202
15.4950770	-1.2034416
7.4704189	-9.3611942
5.1964981	-12.4346720
0.0377205	-13.2821540
-3.5952278	-13.9762520
-7.0505325	-4.4342598
-11.9192950	-4.2354667
-14.0505410	5.4518674
-11.3867880	13.4457230
-7.7286830	12.4075160
-0.8239652	14.7778190
0.6876878	12.9514120
8.5176498	12.7936360
13.2274930	9.8957360
10.8289560	1.1626927
12.1726020	0.7539388
9.0652900	-0.7668391
7.2296160	2.9657368
1.8244083	0.9979529
2.3058600	-2.3380620
4.7979070	1.2461859
6.0484211	-2.4516578
7.8120801	0.3034815
9.7372401	-8.5488875
9.9549507	-8.7722804
6.3845522	-11.3733010
2.6763369	-14.3695280
1.0475905	-10.0118390
-6.3464488	-14.1481230
-11.1839440	-4.2980850
-10.2220010	-3.4123694
-8.2303684	0.3073340
-12.0124570	6.0785517
-10.7042170	6.9100461
-4.0822715	7.4560162
-1.5532532	4.7031720
1.9088336	6.9504378
3.4005600	5.3296719
6.9709444	-3.8775781
4.3301634	-1.3555973
-1.2066375	-4.5866651
-2.2345728	-3.3764109
-5.7558204	-1.2960720
-3.3172839	1.0832180
-6.8494800	2.8777257
2.0663456	3.2655703
-2.8834200	7.8561384
-0.4603390	2.8230452
0.1136409	-2.5566706
0.2048970	-4.7014642
-1.9001729	0.1299734
1.7818948	-1.3212912
-1.2220666	0.4405048
-2.7614132	-5.1195986
-3.3596870	4.2227037
-7.4427646	5.2467438
-6.9665788	3.8572457
2.8699467	4.1049702
2.3089860	10.2972310
8.0722652	8.5376472
6.5505193	0.6130022
9.2975318	-1.0132788
11.5412250	-2.0402936
8.6082460	-5.7537458
7.2835143	-6.9901107
0.2968972	-5.9934935
-3.4612116	-8.7393283
-6.2673851	-9.4538612
-1.6889950	-5.6940825
-4.5452915	-0.5797018
-1.2377072	1.0013456
-1.3572056	2.6563012
-0.9953893	1.9905207
-0.5924772	3.0137077
-0.8592878	1.6194597
5.0339104	-0.4595495
4.3773552	-5.8552131
2.4074895	-4.6504168
1.3829623	-6.5058218
2.1179774	0.6488568
-2.0939741	-3.1026432
-3.3404232	2.6131013
-2.4600420	-3.4136219
1.9065555	0.1335073
3.8925578	-2.2342886
0.7628255	0.5139441
-2.8436170	-2.9029191
-1.3769042	-4.5229943
-5.3497690	-5.8631369
-3.1873485	-5.4592962
-8.0252777	0.9555634
-5.5318906	0.3815830
-2.5329056	5.2484595
-6.6421693	6.8478816
1.0575519	3.9101772
-3.0793762	7.1542761
-1.8054493	6.0883632
0.1839975	3.7119356
6.0324357	5.1428265
7.5092366	-3.7117439
6.1949652	-3.5936253
3.6839193	-5.7644770
-3.6099124	-4.9457736
-0.3779296	-1.2015306
-4.1585449	-1.8587521
1.1791312	-0.7767192
-2.9566420	0.2248183
-1.4787063	5.5912244
4.5297773	-1.9778547
4.5913488	-1.9754986
0.8178110	1.2604103
-0.6543717	-2.7158476
-0.0887313	-2.2927769
0.0169136	-4.2854023
-1.8314315	-1.0052307
-3.3864767	-2.2984519
-4.5679326	-4.4841960
-4.7892264	-0.0387949
-3.8938120	2.4587929
-0.8429591	3.2571954
0.0327909	0.6878111
-0.3571339	4.0532291
-0.3276334	-0.9021970
1.3889427	-5.6316137
-1.3981352	-3.0285620
-0.1092990	-5.5767696
-3.5826256	-3.1076911
-4.5101724	-6.3678090
-2.2393857	0.9642410
-8.0236083	3.7215760
-5.0521412	6.1304935
-1.1130173	2.9349427
-0.8711163	6.9426252
1.0056292	5.9270880
6.0869389	-0.7695131
0.1407446	4.0297697
4.4447268	3.3490926
-1.0059049	-2.4717248
5.3008061	-0.8063540
-2.8024425	-1.6754528
1.0404911	-2.0683773
-3.0255503	1.3223645
-0.5883979	-3.8904074
-5.3470577	3.0510212
-0.8920303	2.8621727
-3.2774382	4.6177253
-2.9654365	-1.3739703
1.3469322	0.1105935
-0.8505604	-3.8380338
2.3604159	1.3650910
-0.8252650	-3.3194892
-0.4769129	-1.3755720
-2.8192256	3.1100279
-5.3956121	1.6168144
1.6992850	1.7685677
2.9376322	2.6936647
4.1130407	4.1356710
-0.7000348	3.8706958
-0.3348212	3.7175412
3.0660991	0.4891562
0.8235184	-0.0916324
3.4171985	-2.0475608
4.6911895	-2.5385394
-0.1615640	-0.6069368
3.3415465	-4.0104484
-4.7644185	1.5161117
0.2702555	-3.8145326
-4.7257085	-1.0989230
-3.4854957	3.6227947
1.2283253	-1.6047588
-0.2096803	-2.0808224
3.1698080	-2.5266858
1.4066673	-1.3725661
3.2358081	0.7352158
-1.4548132	-1.4533280
-1.9352012	-0.6153780
0.5169993	2.7935838
-5.1464394	-3.4795341
2.3357321	0.1404932
-3.0811884	-1.9929891
-0.2473581	3.1209850
2.5202997	-2.0469041
4.1375451	-2.3604298
0.0237147	-0.1174662
2.9837525	-1.7949317
1.0444650	0.9212257
0.8223350	-1.2348896
-2.8589537	0.1348936
1.7026076	-3.2626253
-5.2473222	3.3862832
-3.4701405	3.1796709
0.7740407	4.8278576
2.8004126	5.2090778
-0.4259839	-0.9603780
3.5769060	3.2270216
3.2695427	-0.5205599
2.7887891	3.2593614
6.8649132	2.1126322
0.2929551	-3.2654207
0.3934323	-3.7073387
-2.3682615	1.5058381
-1.4482726	-4.9777510
1.5152009	-3.0408829
3.0614754	2.0220888
-2.2748612	-3.2620893
-1.1200707	-1.5230980
-1.9047052	-3.5020564
2.5513056	2.9397377
3.6384839	-3.6613511
-2.5447100	-0.6842061
-2.5324223	-0.5777444
-2.9363625	-0.8701122
-0.5176369	1.6460511
-3.6399636	2.2827109
0.7617496	3.3648040
0.3186388	4.0103932
-3.6097340	1.3867214
0.4164353	0.8096032
0.1023682	0.9209938
2.7934560	1.1708632
2.8502034	-1.7828602
4.0914668	4.0961823
-0.5608085	-2.1234313
-2.2095815	-4.2924318
-2.2174828	0.2358383
-2.8548706	-5.0585201
-3.7462450	0.1407409
-0.3616351	0.2557771
-3.8142808	0.4442239
-4.6926572	-2.1698045
1.5407229	2.8104569
-4.2951116	1.7125163
-0.4145902	4.0774360
3.3187968	-2.1552654
1.7526383	-2.8167930
1.0592923	0.6789403
4.5667313	0.3956781
1.7771953	-1.9638430
1.1247339	-0.6946981
0.7367154	0.6418025
0.8891352	-0.8373430
3.0990449	-0.3482208
-3.3083028	-2.0269444
-0.8528180	2.4023122
-1.9221249	0.5636416
3.2481341	2.7662288
2.4183910	-1.0394583
-2.9444223	-0.4561269
-0.1654673	-3.3053332
-0.2868587	-0.1534618
-2.5145539	-3.7650511
-0.6372153	-2.7526180
-4.1142541	3.0157715
-1.3450524	0.9478777
-1.6969297	1.8657402
0.7755083	2.4983814
2.8509726	4.7426453
4.1782648	-1.3378767
-0.1263395	1.5196890
2.6419252	0.3436108
-1.2291712	2.0699991
-0.3107580	-1.8607204
-2.7863417	1.6825752
0.5950598	-1.6176977
-3.9221386	-3.8830218
-1.7895650	-2.7617164
-1.3185001	-0.9837238
0.9102091	1.8166478
-2.2915819	-1.9557203
-2.5055396	0.9175672
-0.2341535	-1.3121791
1.2920054	-1.6343157
-2.3326588	-3.1277630
0.7309851	0.7724477
-4.5214049	0.8414894
-4.1098207	3.4669613
-2.0832010	-2.1597538
-2.5831103	1.5796904
2.8106251	1.5357621
0.1587601	-1.8095390
