jMRUI Data Textfile

Filename: dataset14_nWS.txt

PointsInDataset: 2048      
DatasetsInFile: 1         
SamplingInterval: 2.5E-1    
ZeroOrderPhase: 0E0       
BeginTime: 0E0       
TransmitterFrequency: 1.2322E8  
MagneticField: 2.9E0     
TypeOfNucleus: 0E0       
NameOfPatient: dataset14_nWS
DateOfExperiment: 
Spectrometer: 
AdditionalInfo: dataset14_nWS
SignalNames: dataset14_nWS.txt;


Signal and FFT
sig(real)	sig(imag)	fft(real)	fft(imag)
Signal 1 out of 1 in file
49944.5690000	-17.7300190
49745.7090000	16.9564560
49411.7640000	75.4770600
49221.9000000	-4.3871250
48932.6240000	-48.9968550
48687.6960000	-48.5562740
48535.7910000	59.4732410
48389.4820000	38.0971880
48066.5610000	-61.0148520
47873.4010000	-63.4696660
47665.8850000	4.3578441
47428.2050000	21.3769580
47203.0400000	11.3479000
46908.7870000	-11.4893730
46775.7900000	38.4471870
46512.6890000	-65.8142870
46354.3990000	-70.9714280
46166.3720000	44.8417680
45813.8820000	21.3918480
45644.2840000	38.2818560
45507.2630000	34.8008600
45197.0500000	-13.0102710
44966.5220000	5.7828607
44718.0350000	84.2814070
44533.9350000	14.1994010
44334.5230000	-37.8979120
44204.1710000	-71.0198030
43915.1220000	-83.4292070
43758.1400000	59.9136090
43575.3780000	82.3511150
43332.8610000	30.2043400
43064.8740000	-57.5055770
42961.4610000	-16.5191120
42792.1210000	75.6672950
42605.2360000	82.9837730
42328.1010000	13.1565540
42191.1770000	17.8633170
41995.8220000	68.8490910
41704.0370000	78.0774530
41624.2190000	-16.4365150
41434.6110000	70.5293870
41152.6480000	10.7089870
40917.7830000	19.7758850
40798.6600000	55.2609290
40525.6690000	-16.3260610
40392.5080000	61.2650730
40265.2160000	-20.2004280
39930.6100000	-73.7779160
39816.9720000	-17.4516580
39667.5510000	-55.9756590
39435.1110000	37.6028760
39319.4150000	-80.2239720
39079.7500000	-14.5232110
38868.5140000	-69.3719650
38728.3550000	33.3698170
38516.6680000	-83.7164360
38391.1520000	-56.6870850
38138.3480000	44.9741050
38000.7590000	78.3894470
37766.7400000	20.4799590
37573.8520000	-36.6745850
37405.7380000	-44.1697700
37314.0270000	16.2537710
37076.1510000	-28.7712780
36984.9950000	65.8891720
36682.4760000	-38.3796630
36507.6450000	50.9912280
36423.8610000	-47.9244080
36315.9830000	-75.7680540
36040.8130000	17.8409290
35887.1580000	9.5788353
35802.8570000	-24.9643120
35479.7620000	-55.3416140
35397.3400000	71.3536370
35263.7590000	-57.3331770
35132.8360000	-44.1236030
34864.6490000	28.9253110
34755.1040000	-28.4226770
34626.0120000	-44.6592490
34398.6060000	52.4987620
34267.4030000	-30.1642610
34031.5840000	-41.9853690
33911.8670000	1.6973351
33686.4400000	29.3987160
33557.2980000	-33.6437580
33503.0340000	-0.7376129
33232.0140000	-66.4837560
33067.9600000	37.4459340
32897.6760000	-50.3656510
32900.5540000	1.1335101
32755.1770000	-65.1316410
32450.8450000	10.7285790
32392.1440000	84.3172760
32295.4640000	-37.4151420
32070.2470000	72.5589930
31981.1700000	-23.8852330
31707.4490000	84.1575870
31532.4820000	81.8908810
31519.1450000	36.8582510
31375.6790000	-30.3440880
31165.6160000	-48.3829840
30989.1900000	33.1302950
30928.4010000	-6.5903201
30690.5550000	-71.2935420
30624.9750000	13.2617100
30444.4670000	16.9006710
30352.8820000	63.5345230
30199.7710000	-6.3626568
29983.1220000	17.8328020
29853.4010000	25.4673100
29736.8380000	-7.0651562
29545.7230000	-3.5734060
29524.9640000	-42.1733730
29293.6780000	-71.4945540
29258.5360000	-33.1066680
28965.2110000	-16.5904640
28847.7570000	-51.7299440
28782.9370000	-77.8884500
28605.1410000	12.8035730
28556.5050000	-34.4263390
28393.9030000	-12.8303150
28169.9000000	-85.0204690
28172.4880000	-24.8125850
27958.6850000	66.5100650
27900.0640000	37.1421430
27692.8560000	-27.5269640
27611.8640000	-65.9281970
27410.7110000	-79.3658070
27277.5480000	18.9812720
27213.8780000	-85.0859330
27078.0980000	63.3443930
27008.6240000	74.3903440
26796.1360000	35.2792110
26734.4610000	-28.6254500
26593.8290000	-58.0216630
26375.9720000	56.6226550
26334.4270000	6.3024463
26229.2730000	25.6751300
25991.0040000	-1.1980793
25907.6920000	80.2968180
25733.4720000	63.5481600
25713.8740000	-56.1834900
25643.5570000	-77.5972750
25520.3470000	-29.9892860
25381.5730000	-58.5526400
25249.9880000	16.4706660
25060.7380000	-7.8369883
25053.0330000	15.4358780
24820.4060000	-32.8117900
24752.2980000	62.2106860
24577.8960000	-77.9586510
24428.8060000	-32.7558860
24402.7700000	-61.1153910
24324.2440000	-10.4075070
24201.8610000	-32.7770050
24091.8300000	79.6705440
23869.7040000	49.3715810
23826.5710000	-68.3785910
23698.6860000	-64.1830150
23597.4090000	-56.9992350
23463.8620000	40.5553660
23361.8310000	85.0632240
23333.4910000	2.1891673
23131.5390000	2.9014748
23045.9580000	67.4390850
22994.0310000	-68.7630350
22851.5540000	-46.7592810
22764.2620000	-35.8542450
22542.6350000	-60.0864570
22502.2540000	67.5404730
22337.3030000	-69.1289610
22226.0820000	82.1593430
22275.6910000	19.0303090
22162.7610000	35.7346780
21999.5900000	-11.1979520
21815.0810000	-19.1194750
21735.4590000	-12.8234720
21698.1180000	54.8536380
21515.5990000	57.1847020
21434.2510000	12.5827060
21454.2160000	73.3170160
21269.7910000	21.9911100
21106.2630000	-45.3771480
21120.2120000	78.4508100
20946.6530000	-62.1839580
20887.0460000	77.0306920
20833.9530000	-72.5175500
20658.7780000	-38.1015090
20545.5270000	-42.3960240
20450.0820000	-18.3126620
20352.1560000	-38.8278840
20313.9020000	-54.3534300
20188.3990000	26.7539880
20072.2430000	75.8341680
20024.0090000	-60.1960160
19917.8560000	-25.1648130
19826.5810000	47.5399470
19785.9660000	-41.6257000
19636.7340000	24.6483260
19565.7700000	-32.3888280
19469.5540000	37.1172090
19346.3030000	13.4467420
19345.2240000	-20.6898840
19206.5070000	-46.2083270
19054.6280000	-54.3850850
18979.1080000	39.2865500
18871.6000000	-24.6635310
18907.3460000	14.4201740
18770.8700000	-66.7955160
18565.5420000	-26.4259690
18602.0350000	67.7412960
18543.7110000	-41.3882350
18401.7910000	8.8296078
18274.7670000	47.3035910
18264.7740000	-66.1984650
18202.1130000	-66.7866130
17964.9190000	-0.5364717
17998.2020000	22.4467450
17845.1630000	-35.9605970
17707.8710000	71.1762730
17686.0440000	-44.1263570
17656.9790000	-2.0706143
17472.1360000	-52.2165770
17466.7150000	52.6314610
17385.9890000	-9.7880897
17290.2830000	-66.5035000
17133.4490000	-36.9493600
17074.1230000	-52.0817440
17092.9510000	80.9107380
16888.8630000	-25.3132270
16897.3850000	-72.3131520
16739.3230000	-8.3716231
16756.7810000	-36.3146170
16690.2960000	-32.1676620
16515.7990000	36.2891100
16491.1290000	20.6673500
16336.7650000	28.5671460
16283.5730000	45.0551770
16285.6400000	-47.3573870
16167.3050000	31.2951950
16072.0050000	49.7741810
15952.9590000	12.7055790
16035.0440000	48.0854520
15820.2530000	-18.8839550
15822.3870000	-15.0446570
15820.5450000	66.2668830
15647.9400000	0.9981178
15523.2500000	9.0988372
15463.3400000	-47.9639350
15369.9090000	65.0626160
15399.1010000	39.1482010
15313.3860000	-60.0336190
15242.3510000	43.9599950
15214.9800000	-23.5958910
15129.5450000	50.0184000
15035.6620000	15.5571000
14859.3230000	-30.0777800
14858.3450000	-55.0070010
14841.8750000	42.5811960
14725.0580000	36.6273230
14632.9540000	-40.5357320
14521.8120000	57.1823080
14530.0000000	32.7274420
14439.4730000	-12.8763440
14426.1840000	44.2597830
14351.1550000	26.7961880
14213.6870000	35.9285890
14167.4800000	-83.0228090
14185.0480000	-62.0705950
13984.7540000	6.0637405
13985.2530000	-46.6324170
13989.7860000	-58.4624170
13882.4730000	-39.1682530
13856.3680000	24.7096300
13812.0950000	-9.6211293
13734.3660000	-61.2640690
13674.8510000	33.5442100
13553.0320000	-50.6623440
13516.0660000	8.9374692
13355.4620000	65.5622890
13298.0320000	-19.7346270
13244.9120000	26.1597510
13188.6510000	62.6560090
13234.5130000	-24.1099360
13075.0730000	-30.9317660
13017.8430000	60.0919230
12976.6590000	54.5856140
12904.1300000	-52.3723870
12830.6310000	-9.2076516
12730.4900000	-65.8039620
12805.9270000	-23.5207510
12729.8040000	68.5722680
12696.7570000	73.7011390
12635.1660000	-38.4382560
12525.1430000	12.2160430
12511.9120000	31.4796600
12360.4590000	0.9705819
12252.8690000	-78.9185260
12258.7570000	-23.9450850
12281.8580000	82.2583850
12153.1140000	-58.5324010
12138.3940000	-69.8291810
12057.2240000	-3.2538514
12048.4190000	62.9448010
11999.7480000	-76.4502470
11916.7490000	-1.8414193
11767.8430000	-70.0144240
11810.7350000	-71.3054900
11750.3930000	-4.2700499
11706.1970000	63.6070970
11617.8650000	35.1910020
11494.0160000	-23.7934670
11529.7000000	80.5887250
11482.4510000	16.4301180
11413.8460000	12.0918630
11372.0280000	-57.8419840
11297.1250000	12.4057840
11151.2190000	-84.6960160
11175.8920000	-72.4477150
11112.1030000	69.4185390
11023.3790000	-39.9414910
10986.5330000	-28.9325770
10949.2160000	-5.7108483
10944.3700000	-44.4972670
10793.6590000	74.1678310
10768.4090000	36.7477860
10814.8140000	43.3825600
10719.8240000	-42.4034230
10656.0190000	-15.1120890
10543.5220000	16.0073310
10533.1180000	60.2638340
10449.7020000	36.1109390
10463.9440000	-62.6096220
10408.4870000	-41.9892890
10381.5740000	19.9113750
10270.3850000	82.3269910
10297.6870000	-66.5732800
10236.6320000	0.5625124
10113.9080000	-64.2299540
10050.2800000	70.1605600
10104.7360000	-47.1819880
10009.1540000	-3.5259008
10045.7680000	-27.2489530
9856.3678000	21.9578610
9946.9923000	-18.7304550
9808.0158000	3.8556060
9824.7422000	5.1857388
9797.8545000	70.9141830
9638.3462000	-32.4436950
9724.4851000	-54.9609300
9546.6838000	-20.3280670
9554.4473000	-85.5540830
9449.3083000	-8.0515032
9413.0315000	66.2068430
9477.7198000	-6.1771032
9435.4296000	-48.0366970
9340.1362000	-59.0346890
9314.5718000	45.6237890
9156.6687000	-33.0577050
9236.5742000	-68.8731620
9103.9243000	-6.7556681
9126.2663000	24.8366760
9138.2294000	-55.2216080
9030.8339000	-13.4164090
9039.8271000	-47.3644880
8904.7307000	73.8281710
8836.3930000	56.8168340
8855.4364000	-50.1456170
8781.1682000	-33.5495990
8829.3148000	27.7323530
8748.7580000	34.3803160
8724.2453000	-62.7828500
8684.8760000	-58.8578290
8665.9892000	-49.4153290
8535.0404000	-34.4968110
