jMRUI Data Textfile

Filename: dataset12_nWS.txt

PointsInDataset: 2048      
DatasetsInFile: 1         
SamplingInterval: 2.5E-1    
ZeroOrderPhase: 0E0       
BeginTime: 0E0       
TransmitterFrequency: 1.2322E8  
MagneticField: 2.9E0     
TypeOfNucleus: 0E0       
NameOfPatient: dataset12_nWS
DateOfExperiment: 
Spectrometer: 
AdditionalInfo: dataset12_nWS
SignalNames: dataset12_nWS.txt;


Signal and FFT
sig(real)	sig(imag)	fft(real)	fft(imag)
Signal 1 out of 1 in file
49899.0430000	37.0888910
49723.7000000	-68.1060230
49539.2880000	-18.6888440
49255.2730000	84.2614070
49045.4140000	-78.3810100
48828.8430000	54.2464490
48570.9850000	-59.3801420
48355.0120000	31.7320770
48164.4170000	20.6835370
47832.1490000	-14.5012350
47660.9400000	-26.2671080
47364.1820000	-74.9951930
47199.0660000	2.1708367
47049.4490000	-82.1306170
46777.0950000	-61.8887800
46470.3540000	-13.0976990
46271.6340000	-15.7046550
46117.7680000	-33.8925750
45943.3470000	75.0629340
45662.5950000	84.9373430
45519.8620000	-72.5746700
45244.8160000	-1.7403005
45048.9970000	72.9705520
44834.3710000	-69.2876300
44588.4710000	-23.0906790
44307.2590000	43.5486470
44110.9410000	3.3843844
44024.9740000	56.1938280
43782.1270000	9.6805046
43495.2210000	77.0874480
43379.2410000	8.8665158
43068.6420000	18.6814900
42894.6000000	84.0115150
42815.5810000	-81.3613640
42540.2200000	-44.3278660
42255.0270000	-37.1819200
42206.5310000	54.1209010
42000.7190000	-60.5950690
41689.9300000	19.6765380
41496.9920000	-73.3680540
41351.8560000	-68.4105520
41187.1740000	1.6865780
40911.3270000	-85.3526980
40759.3200000	-59.0515950
40546.4850000	1.6395083
40416.4080000	50.7515020
40184.9910000	35.3327440
39938.9200000	23.1184960
39848.4070000	-40.1153910
39579.2910000	80.7301670
39489.9420000	-65.1413440
39187.7510000	84.1030570
39046.7180000	-37.1304930
38895.1560000	-37.3805490
38709.9190000	-49.2441510
38504.7390000	-33.1550450
38328.5430000	70.0245140
38163.1980000	57.8397600
38017.5730000	-65.6014770
37793.7790000	-78.4602100
37717.2930000	-35.3182190
37486.6320000	71.4505010
37223.5140000	6.8680305
37046.2960000	75.8114890
36932.1900000	65.9844300
36700.3360000	18.4266470
36524.7290000	-62.0881390
36456.1880000	41.9546780
36226.9130000	-52.6514960
36108.4240000	81.8300040
35836.2600000	-19.8669120
35746.4110000	-85.3852760
35553.1000000	-85.3053340
35312.0230000	-50.5936880
35187.8370000	13.5292850
35107.1580000	-85.1266010
34935.3990000	78.9166090
34759.7710000	85.3310750
34642.5060000	-4.1081912
34362.0920000	16.6799660
34183.8870000	4.0230266
34063.8170000	37.7242670
34002.1000000	-13.3644250
33779.8830000	24.1015280
33555.2100000	-66.7027720
33368.8130000	-56.9646620
33266.6460000	35.3557680
33100.5700000	52.6746410
33043.6400000	-21.3077700
32796.9710000	-13.3666740
32742.4140000	-0.1018177
32452.6030000	-50.6684040
32389.9780000	82.1511390
32186.0820000	46.5101390
31988.3160000	76.1546250
31900.7550000	-27.4806580
31816.3670000	50.7310400
31585.6950000	-35.1207880
31418.1780000	-49.1105260
31240.8780000	25.3714500
31219.0610000	25.8552210
31001.8220000	34.5217830
30851.5290000	37.8619500
30651.8470000	-65.5809140
30579.0330000	37.8176810
30516.8250000	-71.7501830
30275.4000000	-82.1022120
30142.4760000	-49.5226890
30073.4000000	-15.8863440
29790.6790000	-22.4894510
29785.2180000	44.6329250
29623.8660000	59.8484680
29479.1180000	-47.1685710
29307.0660000	-16.2380810
29262.7720000	35.4001300
29011.7120000	45.9901650
28900.0410000	55.3452730
28848.4870000	0.7460292
28693.2850000	35.9517700
28531.9330000	-24.1831510
28297.1410000	80.4038500
28306.4360000	34.2695290
28031.4230000	65.3652160
27958.3280000	-74.8121810
27799.1170000	22.4728610
27735.0760000	-37.7911980
27659.9790000	10.3884560
27523.9390000	85.1201620
27272.9160000	72.8194820
27215.5030000	-85.4891180
27024.4700000	4.6774603
26933.2830000	-80.1414110
26758.4430000	42.6025690
26721.0960000	-9.8762258
26610.7550000	34.8360010
26403.9440000	62.8306950
26295.9530000	-8.8160898
26231.1590000	42.5866480
26077.9710000	60.6269440
25974.5930000	-56.1721780
25814.1240000	81.5107650
25661.7050000	9.3567005
25623.1820000	-35.2583940
25490.8910000	49.7592370
25254.2860000	-83.5673080
25153.2830000	-6.5279301
25123.1880000	61.1223830
25056.1650000	24.4064140
24778.4590000	-84.2731850
24816.2990000	46.5598820
24660.2410000	-0.2336242
24441.4780000	-74.5153480
24311.2180000	-61.2307580
24269.5470000	61.1522990
24176.1850000	-42.4297870
24108.6510000	-38.2404650
23912.1140000	-19.1648830
23900.8480000	61.6959790
23700.0800000	-29.2117760
23532.4520000	-51.5245330
23571.2380000	-45.4970870
23382.6070000	-49.7575590
23195.9340000	27.0996500
23179.5650000	17.7989030
23016.0120000	36.5410210
22971.0570000	44.6059200
22814.2700000	67.6708610
22739.7660000	-8.9476901
22553.3940000	-21.7670200
22582.9850000	-4.6771386
22492.3130000	-2.4598491
22312.4800000	27.7860090
22163.1030000	68.7548840
22164.5420000	82.0217040
21951.5290000	-52.2775170
21934.9270000	-66.0205660
21713.8710000	-79.5570170
21699.8870000	36.6185410
21633.7280000	-43.7778470
21546.2870000	50.5179300
21391.8940000	-70.4511410
21292.6290000	-30.0245160
21258.6350000	-3.4057505
21015.1870000	-37.8819540
21011.3160000	-8.7548562
20955.7580000	-1.5130352
20823.5200000	40.7119320
20718.8630000	-10.2222810
20509.9210000	22.7085680
20562.5670000	-59.6627060
20360.9110000	-46.5910090
20245.6310000	-78.5481860
20121.3920000	-81.8686450
20151.3380000	17.9658960
19999.1570000	60.1275520
19923.0770000	-3.1868469
19891.7020000	-0.2414949
19772.5660000	-32.5394510
19691.2130000	-36.1615620
19553.7930000	20.2439630
19445.4780000	40.4991530
19412.0960000	-46.4566610
19225.9230000	-74.5411760
19251.0970000	-65.6420520
19174.4050000	-16.3005030
19072.1070000	-19.3894410
18961.8030000	-39.8684140
18846.3290000	-62.7793510
18767.3330000	-8.9488203
18618.9760000	77.7204650
18529.2550000	83.2909110
18481.1630000	-49.2600170
18363.3420000	-65.1621810
18376.5720000	-31.4908360
18245.6240000	56.3779900
18048.6780000	-78.0747620
17992.4620000	72.4054540
18018.4620000	-81.4106700
17794.2270000	12.4580750
17837.1330000	-62.3165020
17752.6420000	55.3344850
17660.5480000	-33.3376910
17565.1330000	-62.8585280
17505.1490000	71.4989720
17325.7170000	38.8270780
17208.4360000	-80.7472790
17286.1880000	55.8543740
17095.3940000	-12.0212940
16991.1230000	-23.7017890
17017.7470000	-70.8099560
16819.6140000	44.7978640
16860.5150000	15.8166350
16659.4560000	-23.8464790
16651.6440000	-67.3293400
16536.6700000	47.7150870
16569.6280000	50.5851840
16464.6460000	-81.9935960
16408.2100000	68.1987980
16278.0870000	-7.2808667
16269.0770000	5.1189304
16041.3260000	12.9542670
16116.0390000	22.7972720
16025.7470000	48.0858360
15923.3880000	11.6916140
15844.4390000	64.4066030
15714.1200000	65.9721820
15669.2190000	-22.2379370
15641.1750000	-3.5817201
15601.0850000	39.8139150
15425.4660000	82.0068130
15365.0640000	65.4300100
15333.8620000	8.2076467
15180.6800000	65.3262540
15100.2360000	-66.3307220
15168.2980000	37.6076030
15035.0360000	-1.1471279
15020.9590000	58.0992110
14811.8630000	-67.4618620
14804.4940000	-53.9033370
14679.5060000	-7.4162237
14625.3360000	-39.1998570
14613.8390000	-25.0062340
14502.1130000	-84.4800060
14396.7370000	8.2459180
14391.0300000	-18.1876560
14275.1520000	-25.5617230
14231.7140000	-56.1945650
14130.1780000	-67.0313850
14133.1400000	39.0923280
14134.4980000	80.4192040
14053.1120000	-14.8160320
13953.9430000	-9.0066621
13819.9070000	-3.7262082
13831.6280000	-14.8244610
13649.6770000	29.1167850
13583.2930000	-40.2509010
13684.2540000	5.5412102
13604.8300000	-9.2660644
13420.4680000	-31.3777490
13409.0990000	-10.6185740
13355.6220000	1.7420674
13263.8520000	43.0734740
13137.3250000	-11.6670500
13183.0830000	-35.7048880
13069.1180000	59.4488100
13114.0490000	-57.0915460
12998.6940000	-42.7881410
12954.6870000	-35.6422190
12800.8890000	-41.2909330
12870.1200000	-38.6156190
12801.9670000	-66.4111760
12610.1180000	-82.4178070
12642.1180000	-19.7744720
12474.9370000	6.3297547
12563.9740000	9.5971448
12351.9590000	21.7460690
12315.0040000	-11.2556220
12318.2890000	13.9625250
12263.8800000	34.4153810
12267.4240000	-65.0775080
12089.0990000	29.8836300
12019.1840000	83.7112850
12062.2990000	58.6362280
11951.2850000	31.9916150
11902.8730000	-3.5592861
11881.8660000	5.1341633
11772.9740000	-49.5932770
11784.8170000	-11.3178060
11690.5660000	-79.7014940
11691.2710000	-66.1682550
11579.5540000	80.8710880
11607.2180000	40.3290540
11478.3130000	-63.7781270
11343.7720000	15.5546640
11427.7640000	-72.1558650
11385.7820000	81.0881440
11268.3570000	78.7725300
11288.6040000	-46.0969100
11133.7060000	-53.9068710
11082.0320000	56.6459710
11097.0700000	36.9385330
10951.2090000	-33.5279670
10892.2460000	-62.6219360
10842.9160000	32.8443940
10929.2370000	-77.5409770
10820.6170000	31.5776850
10768.1980000	37.9937320
10698.5240000	2.8664825
10608.1080000	17.4590480
10657.3720000	-64.0366140
10576.5960000	-67.2255170
10546.6540000	-66.3602100
10375.1360000	-21.7654300
10397.4680000	62.8986630
10324.6820000	-59.3003410
10350.5980000	-61.3404340
10204.0960000	-72.4446260
10248.9340000	-35.9122570
10084.9600000	-72.3344660
10145.9110000	27.7352860
10039.5090000	-38.0071230
10022.9160000	-49.5209530
9910.2766000	8.6469604
9871.9424000	61.3534710
9844.3118000	-70.0543600
9864.2704000	47.7979900
9857.9005000	68.3371090
9709.6160000	-80.0686400
9768.0576000	58.7810610
9617.2020000	7.2711436
9630.9365000	-18.7595930
9478.6449000	-81.6075390
9535.8098000	52.2971570
9382.6510000	-1.1539950
9460.1978000	36.1924620
9312.5363000	-21.1971400
9315.5953000	-10.2521690
9299.2953000	-55.3570620
9275.5706000	1.2422073
9240.9120000	-23.5487830
9112.3650000	7.0006103
9189.6807000	69.8472350
8991.0536000	71.6270620
8955.9208000	-82.3222850
8946.7728000	59.3948670
8873.1655000	-51.6559440
8880.3043000	57.2282600
8939.2421000	-76.5602460
8834.5218000	28.3459500
8810.3029000	53.1050310
8696.2187000	-70.7026050
8616.4215000	69.1440560
8647.4203000	-17.3406610
8603.8640000	3.7274259
8550.5743000	-40.6720770
8532.3364000	37.0562930
