jMRUI Data Textfile

Filename: Ala.txt

PointsInDataset: 2048      
DatasetsInFile: 1         
SamplingInterval: 2.5E-1    
ZeroOrderPhase: 0E0       
BeginTime: 0E0       
TransmitterFrequency: 1.2322E8  
MagneticField: 2.9E0     
TypeOfNucleus: 0E0       
NameOfPatient: Ala
DateOfExperiment: 
Spectrometer: 
AdditionalInfo: Ala
SignalNames: Ala.txt;


Signal and FFT
sig(real)	sig(imag)	fft(real)	fft(imag)
Signal 1 out of 1 in file
2.7694800	0.0349232
2.3288200	-1.4254200
1.1475700	-2.3524000
-0.3104990	-2.4266600
-1.4957700	-1.6709100
-1.9943800	-0.4209810
-1.6773200	0.8268160
-0.7233910	1.6153700
0.4755850	1.6878800
1.4724300	1.0562200
1.9184100	-0.0298199
1.6653600	-1.1827800
0.7980070	-2.0055400
-0.3995240	-2.2118500
-1.5302500	-1.7144500
-2.2064400	-0.6605090
-2.1805900	0.6023700
-1.4448900	1.6333900
-0.2549170	2.0554900
0.9486390	1.7075400
1.7042500	0.7242630
1.7179900	-0.5031080
0.9919020	-1.4803400
-0.1718480	-1.8151200
-1.2978800	-1.3807700
-1.9384900	-0.3628580
-1.8556100	0.8294520
-1.1036700	1.7408900
0.0144358	2.0513800
1.0850800	1.6841800
1.7457700	0.8075840
1.8045100	-0.2516680
1.2827900	-1.1340200
0.3859040	-1.5622900
-0.5737450	-1.4169100
-1.2726900	-0.7625670
-1.4714700	0.1719960
-1.0914700	1.0582700
-0.2525840	1.5690200
0.7504840	1.4942500
1.5415500	0.8322640
1.8037100	-0.1895030
1.4139200	-1.1881700
0.5071900	-1.7750700
-0.5687310	-1.7197300
-1.3961000	-1.0513400
-1.6640500	-0.0462877
-1.2965700	0.8937030
-0.4731720	1.4138400
0.4616790	1.3472600
1.1498000	0.7643120
1.3581500	-0.0802595
1.0488200	-0.8640880
0.3654740	-1.3189400
-0.4393790	-1.3109500
-1.0960900	-0.8634230
-1.3967000	-0.1328060
-1.2474100	0.6432250
-0.6928350	1.2119000
0.0906527	1.3779800
0.8387810	1.0711200
1.2811800	0.3851370
1.2426300	-0.4369290
0.7241290	-1.0826700
-0.0800941	-1.2935200
-0.8508090	-0.9792370
-1.2755700	-0.2657350
-1.1850500	0.5540490
-0.6268140	1.1474600
0.1605430	1.2867400
0.8585620	0.9407130
1.2078800	0.2730350
1.1076400	-0.4439220
0.6352580	-0.9494340
-0.0089728	-1.0903100
-0.5930700	-0.8569010
-0.9347990	-0.3603130
-0.9466890	0.2223190
-0.6441610	0.7054860
-0.1305910	0.9412390
0.4298590	0.8533710
0.8512140	0.4616150
0.9788860	-0.1117110
0.7485710	-0.6671450
0.2263760	-0.9920350
-0.3986010	-0.9466440
-0.8805850	-0.5339220
-1.0208700	0.0880473
-0.7603630	0.6671780
-0.2109120	0.9682360
0.3947200	0.8789870
0.8104690	0.4569470
0.8864400	-0.1059880
0.6253290	-0.5787260
0.1629770	-0.7934090
-0.3073430	-0.7044640
-0.6209720	-0.3839570
-0.6960560	0.0301850
-0.5406660	0.3964510
-0.2266390	0.6120920
0.1441900	0.6276910
0.4648300	0.4456380
0.6402930	0.1166690
0.6074750	-0.2638220
0.3608430	-0.5708710
-0.0288710	-0.6863810
-0.4238920	-0.5501260
-0.6666600	-0.1995410
-0.6502300	0.2312280
-0.3755420	0.5635570
0.0405478	0.6568820
0.4171910	0.4779500
0.5964620	0.1168530
0.5179220	-0.2604160
0.2401590	-0.4958420
-0.0994047	-0.5121340
-0.3589580	-0.3362470
-0.4564920	-0.0677011
-0.3912350	0.1815790
-0.2203930	0.3372120
-0.0162848	0.3777400
0.1652920	0.3186210
0.2910730	0.1877730
0.3397530	0.0143729
0.2953000	-0.1656180
0.1562690	-0.3023000
-0.0464341	-0.3409010
-0.2440530	-0.2497490
-0.3518450	-0.0494304
-0.3122910	0.1821920
-0.1333710	0.3412570
0.1065380	0.3518590
0.2959720	0.2100150
0.3500880	-0.0120085
0.2561740	-0.2060540
0.0762603	-0.2885810
-0.0939197	-0.2433720
-0.1818280	-0.1208400
-0.1739910	0.0020525
-0.1103200	0.0715629
-0.0459501	0.0829744
-0.0109967	0.0685064
0.0030933	0.0615432
0.0242458	0.0671558
0.0665982	0.0613709
0.1119830	0.0175961
0.1215430	-0.0630607
0.0682194	-0.1436270
-0.0362339	-0.1734880
-0.1423200	-0.1249190
-0.1930150	-0.0159586
-0.1615580	0.0985655
-0.0689556	0.1621510
0.0316410	0.1524150
0.0917706	0.0916928
0.0981521	0.0257799
0.0747266	-0.0117779
0.0564403	-0.0219202
0.0568836	-0.0320803
0.0564922	-0.0654065
0.0215506	-0.1131510
-0.0607243	-0.1344260
-0.1598740	-0.0863994
-0.2134020	0.0366575
-0.1673020	0.1861660
-0.0184299	0.2805460
0.1726810	0.2541030
0.3108140	0.1015410
0.3202380	-0.1126470
0.1895410	-0.2876740
-0.0215359	-0.3419570
-0.2165390	-0.2557460
-0.3146280	-0.0759361
-0.2879230	0.1158920
-0.1642380	0.2480220
-0.0005047	0.2872650
0.1498350	0.2389370
0.2534520	0.1276320
0.2930990	-0.0202005
0.2565460	-0.1779530
0.1362290	-0.3092190
-0.0555700	-0.3644610
-0.2697980	-0.2979810
-0.4235130	-0.1006200
-0.4326490	0.1747170
-0.2612900	0.4197590
0.0436030	0.5162730
0.3598720	0.3992440
0.5436980	0.1003640
0.5023900	-0.2578350
0.2449360	-0.5182620
-0.1197570	-0.5660430
-0.4362540	-0.3831260
-0.5768620	-0.0519777
-0.4961230	0.2896350
-0.2401070	0.5137220
0.0863793	0.5514410
0.3694540	0.4067830
0.5250550	0.1389620
0.5146110	-0.1667890
0.3434850	-0.4225910
0.0554802	-0.5521820
-0.2708690	-0.5043680
-0.5313120	-0.2722450
-0.6214490	0.0882371
-0.4792500	0.4582830
-0.1264870	0.6895980
0.3192000	0.6664050
0.6802140	0.3680420
0.7946410	-0.1050930
0.5960000	-0.5645950
0.1531420	-0.8159770
-0.3550380	-0.7494410
-0.7197670	-0.3918710
-0.7964590	0.1069860
-0.5650230	0.5450550
-0.1294660	0.7567150
0.3361660	0.6759550
0.6627160	0.3493520
0.7453240	-0.0964975
0.5676340	-0.5083870
0.1933890	-0.7551290
-0.2596290	-0.7590120
-0.6507740	-0.5114970
-0.8498930	-0.0778648
-0.7743760	0.4110790
-0.4248630	0.7882430
0.0967567	0.9035080
0.6065920	0.6877070
0.9012990	0.1977350
0.8446000	-0.3878190
0.4374470	-0.8326660
-0.1683380	-0.9437320
-0.7276290	-0.6614410
-1.0075900	-0.0922355
-0.8906190	0.5356470
-0.4240530	0.9721200
0.2055680	1.0515000
0.7569790	0.7552630
1.0334900	0.2073670
0.9523270	-0.3864390
0.5609720	-0.8208400
0.0059239	-0.9589330
-0.5235360	-0.7666890
-0.8534490	-0.3136950
-0.8723450	0.2504750
-0.5631400	0.7363850
-0.0155775	0.9674650
0.5892140	0.8388450
1.0289900	0.3658010
1.1190700	-0.3026590
0.7930250	-0.9237020
0.1465920	-1.2500100
-0.5850840	-1.1354500
-1.1172200	-0.6073560
-1.2360900	0.1345290
-0.8941940	0.7980990
-0.2328000	1.1229200
0.4796670	0.9898980
0.9627500	0.4661000
1.0376700	-0.2319490
0.6900320	-0.8331290
0.0613669	-1.1179100
-0.6160330	-0.9919360
-1.1064700	-0.5057550
-1.2463300	0.1743460
-0.9885310	0.8248890
-0.4119160	1.2328400
0.3011640	1.2581400
0.9150970	0.8802170
1.2128800	0.2154330
1.0741800	-0.5077820
0.5324640	-1.0202000
-0.2192390	-1.1127000
-0.8891650	-0.7284240
-1.1994100	-0.0013502
-1.0049500	0.7857420
-0.3631520	1.3133100
0.4832900	1.3596500
1.2058400	0.8958810
1.5271900	0.0968181
1.3328800	-0.7355480
0.7095080	-1.2978500
-0.1011950	-1.4025000
-0.8042060	-1.0387200
-1.1612900	-0.3613720
-1.0675500	0.3766170
-0.5748030	0.9150060
0.1348870	1.0684800
0.8098980	0.7805970
1.2061400	0.1409220
1.1641000	-0.6376760
0.6674910	-1.2803200
-0.1372050	-1.5401100
-0.9771270	-1.2920600
-1.5443900	-0.5944960
-1.6152300	0.3157810
-1.1485200	1.1047000
-0.3153330	1.4725200
0.5618780	1.2805200
1.1394400	0.6137830
1.1951300	-0.2518000
0.7188400	-0.9646250
-0.0886037	-1.2419400
-0.9037890	-0.9794700
-1.4125600	-0.2820720
-1.4270900	0.5892510
-0.9443830	1.3229200
-0.1332460	1.6683500
0.7339080	1.5146100
1.3741500	0.9176490
1.5825700	0.0765806
1.2952300	-0.7293580
0.6126280	-1.2274300
-0.2248100	-1.2416900
-0.9096500	-0.7612100
-1.1737700	0.0413429
-0.8942990	0.8587170
-0.1551050	1.3585400
0.7707070	1.3159500
1.5204800	0.7132990
1.7876000	-0.2420380
1.4503000	-1.1959400
0.6244940	-1.7910100
-0.3842740	-1.8119700
-1.2073300	-1.2687100
-1.5601100	-0.3836620
-1.3468200	0.5049770
-0.6837610	1.0770700
0.1582140	1.1450400
0.8600400	0.7095040
1.1655600	-0.0541547
0.9617300	-0.8631770
0.3096100	-1.4219000
-0.5767560	-1.5159300
-1.3962000	-1.0828900
-1.8562200	-0.2403780
-1.7746300	0.7422470
-1.1541500	1.5285900
-0.1970080	1.8355700
0.7573730	1.5472600
1.3573800	0.7725990
1.3805600	-0.1857720
0.8299880	-0.9470030
-0.0610664	-1.2063900
-0.9223240	-0.8612520
-1.3980500	-0.0519397
-1.2900100	0.8992720
-0.6306460	1.6214900
0.3398760	1.8405300
1.2753100	1.4761800
1.8556300	0.6589040
1.8971200	-0.3301710
1.4053500	-1.1640800
0.5623850	-1.5796700
-0.3389170	-1.4592000
-0.9903930	-0.8650610
-1.1679500	-0.0208611
-0.8088460	0.7576780
-0.0422229	1.1669300
0.8440990	1.0259100
1.4994500	0.3537540
1.6414700	-0.6220700
1.1730800	-1.5411100
0.2330460	-2.0470000
-0.8492350	-1.9323500
-1.6817300	-1.2276600
-1.9677100	-0.1921810
-1.6245900	0.7912310
-0.8122390	1.3708600
0.1385370	1.3626900
0.8616450	0.8127250
1.0953900	-0.0341299
0.7712760	-0.8369390
0.0251422	-1.2863700
-0.8627530	-1.2090700
-1.5691400	-0.6182090
-1.8348400	0.2979130
-1.5473200	1.2393800
-0.7784440	1.8909100
0.2333820	2.0257200
1.1561200	1.5874900
1.6759200	0.7212360
1.6139100	-0.2662650
1.0034500	-1.0123600
0.0899810	-1.2370800
-0.7561330	-0.8592200
-1.1846900	-0.0371988
-1.0090900	0.8891340
-0.2847360	1.5347200
0.7134860	1.6255200
1.6044800	1.1067300
2.0539200	0.1582030
1.9009600	-0.8844270
1.2092900	-1.6637700
0.2299440	-1.9319400
-0.6998210	-1.6304600
-1.2775300	-0.8973720
-1.3338400	-0.0092620
-0.8813540	0.7154400
-0.1055070	1.0206500
0.6964840	0.7959450
1.2122600	0.1166160
1.2213200	-0.7739320
0.6796350	-1.5409200
-0.2515980	-1.8758200
-1.2525500	-1.6160500
-1.9589600	-0.8183870
-2.1041400	0.2509130
-1.6300400	1.2135600
-0.7165040	1.7282600
0.2883970	1.6283900
1.0087000	0.9878820
1.1906600	0.0867629
0.7982230	-0.7061300
0.0167505	-1.0800100
-0.8296540	-0.8966710
-1.4065400	-0.2307100
-1.4896600	0.6710130
-1.0358700	1.4859200
-0.1874870	1.9284000
0.7822160	1.8417900
1.5604900	1.2457600
1.8961700	0.3293760
1.6832400	-0.6077600
1.0022100	-1.2525700
0.1015400	-1.3876700
-0.6829050	-0.9763490
-1.0494500	-0.1876010
-0.8500190	0.6576680
-0.1570590	1.2065500
0.7564870	1.2153500
1.5221100	0.6520800
1.8239800	-0.2868930
1.5268000	-1.2555400
0.7275940	-1.8981800
-0.2887200	-1.9894200
-1.1668300	-1.5153800
-1.6183100	-0.6672680
-1.5227400	0.2419240
-0.9584240	0.8973720
-0.1610210	1.0912600
0.5662170	0.7855120
0.9558890	0.1151870
0.8622560	-0.6614180
0.3075580	-1.2482400
-0.5226820	-1.4090000
-1.3364800	-1.0501300
-1.8322600	-0.2618570
-1.8082700	0.7023370
-1.2453800	1.5097900
-0.3262780	1.8718100
0.6252740	1.6596000
1.2674900	0.9621590
1.3773500	0.0563498
