jMRUI Data Textfile

Filename: GABA.txt

PointsInDataset: 2048      
DatasetsInFile: 1         
SamplingInterval: 2.5E-1    
ZeroOrderPhase: 0E0       
BeginTime: 0E0       
TransmitterFrequency: 1.2322E8  
MagneticField: 2.9E0     
TypeOfNucleus: 0E0       
NameOfPatient: GABA
DateOfExperiment: 
Spectrometer: 
AdditionalInfo: GABA
SignalNames: GABA.txt;


Signal and FFT
sig(real)	sig(imag)	fft(real)	fft(imag)
Signal 1 out of 1 in file
3.5270300	-0.2305590
3.0277100	-1.6943800
1.9452700	-2.7406800
0.5679950	-3.1648900
-0.7730430	-2.9437500
-1.8077300	-2.2123300
-2.3861200	-1.1913000
-2.4797400	-0.1091830
-2.1463100	0.8450380
-1.4925700	1.5332800
-0.6565830	1.8644900
0.1964180	1.8001700
0.8877450	1.3746000
1.2643300	0.7104040
1.2537900	0.0023128
0.9035020	-0.5405670
0.3721850	-0.7730920
-0.1317910	-0.6716790
-0.4369800	-0.3368600
-0.4742400	0.0619648
-0.2870870	0.3675130
0.0124822	0.4954090
0.3096390	0.4453130
0.5322510	0.2673900
0.6547940	0.0166830
0.6716950	-0.2702600
0.5716620	-0.5655260
0.3386190	-0.8249560
-0.0213046	-0.9787060
-0.4523100	-0.9539590
-0.8501900	-0.7180980
-1.1006400	-0.3105040
-1.1334500	0.1643680
-0.9566750	0.5832960
-0.6464190	0.8616940
-0.2988690	0.9847250
0.0225193	0.9928960
0.3086600	0.9352760
0.5827590	0.8262570
0.8542350	0.6379600
1.0857700	0.3330490
1.2002100	-0.0878589
1.1239900	-0.5610810
0.8364320	-0.9775310
0.3897190	-1.2323300
-0.1138500	-1.2727800
-0.5703610	-1.1134600
-0.9143520	-0.8124030
-1.1253900	-0.4307020
-1.2035400	-0.0076916
-1.1402100	0.4312940
-0.9132630	0.8461410
-0.5138420	1.1625100
0.0160174	1.2862100
0.5684530	1.1495000
0.9978000	0.7599590
1.1812400	0.2162210
1.0766800	-0.3254310
0.7416690	-0.7169550
0.3018490	-0.8784020
-0.1100610	-0.8179570
-0.4066190	-0.6058590
-0.5610320	-0.3259740
-0.5857980	-0.0397621
-0.5002380	0.2173720
-0.3162390	0.4154850
-0.0519036	0.5125250
0.2437410	0.4626510
0.4838680	0.2493180
0.5712590	-0.0823363
0.4487610	-0.4240320
0.1400940	-0.6443970
-0.2496670	-0.6510510
-0.5793050	-0.4372100
-0.7370500	-0.0833724
-0.6874300	0.2864350
-0.4734160	0.5651280
-0.1783590	0.7023900
0.1222310	0.7039010
0.3863660	0.5999520
0.5970320	0.4134970
0.7355200	0.1535580
0.7658850	-0.1640470
0.6486700	-0.4911240
0.3758360	-0.7447770
-0.0015416	-0.8386210
-0.3793080	-0.7302750
-0.6430370	-0.4521670
-0.7230030	-0.1014550
-0.6259840	0.2075110
-0.4232680	0.3985710
-0.2040370	0.4619780
-0.0264214	0.4399730
0.1018220	0.3842030
0.2042090	0.3179370
0.2975320	0.2297190
0.3670400	0.0994442
0.3745780	-0.0673480
0.2924530	-0.2269440
0.1348540	-0.3188900
-0.0400380	-0.3062720
-0.1617130	-0.2039980
-0.1908740	-0.0722638
-0.1429690	0.0217107
-0.0740307	0.0465592
-0.0389552	0.0232522
-0.0528372	0.0035844
-0.0836209	0.0272506
-0.0808191	0.0898754
-0.0180807	0.1458740
0.0828250	0.1436990
0.1648590	0.0666791
0.1758700	-0.0514289
0.1060790	-0.1479580
-0.0049168	-0.1738940
-0.0963982	-0.1259520
-0.1285170	-0.0448909
-0.1066730	0.0175087
-0.0708777	0.0369867
-0.0595970	0.0314398
-0.0769051	0.0411105
-0.0888811	0.0905445
-0.0523483	0.1627490
0.0462408	0.2067700
0.1723910	0.1742620
0.2612490	0.0579965
0.2598370	-0.0970257
0.1634820	-0.2193290
0.0198261	-0.2557990
-0.1025310	-0.2037140
-0.1579660	-0.1076150
-0.1488360	-0.0246182
-0.1148020	0.0153090
-0.0965692	0.0249037
-0.1028500	0.0409102
-0.1058930	0.0873995
-0.0682681	0.1508230
0.0208498	0.1870250
0.1292260	0.1553650
0.1991820	0.0536919
0.1872690	-0.0734440
0.0966263	-0.1611260
-0.0225955	-0.1666380
-0.1058840	-0.0974250
-0.1167100	-0.0040969
-0.0680476	0.0561142
-0.0081618	0.0584078
0.0176944	0.0236019
0.0005015	-0.0031169
-0.0290266	0.0094654
-0.0283070	0.0529724
0.0201433	0.0861204
0.0916354	0.0682786
0.1357110	-0.0062135
0.1138400	-0.0997784
0.0297573	-0.1564000
-0.0708914	-0.1412980
-0.1318370	-0.0658207
-0.1253070	0.0211486
-0.0699312	0.0688288
-0.0143775	0.0605496
0.0005953	0.0233163
-0.0271593	0.0042079
-0.0608286	0.0319369
-0.0546554	0.0929995
0.0087099	0.1406620
0.1020800	0.1300770
0.1713080	0.0530022
0.1735900	-0.0541168
0.1078810	-0.1348870
0.0148607	-0.1520360
-0.0531895	-0.1117160
-0.0696469	-0.0553219
-0.0499715	-0.0257585
-0.0354238	-0.0342650
-0.0572102	-0.0532034
-0.1090620	-0.0401464
-0.1497460	0.0254420
-0.1340820	0.1214440
-0.0491485	0.1948520
0.0719663	0.1980450
0.1698380	0.1229150
0.1978200	0.0074950
0.1520900	-0.0898155
0.0709626	-0.1293610
0.0048246	-0.1139710
-0.0202241	-0.0806047
-0.0177938	-0.0674956
-0.0248656	-0.0826768
-0.0672674	-0.0982042
-0.1343760	-0.0743585
-0.1832700	0.0051254
-0.1698810	0.1144690
-0.0837646	0.1991400
0.0401122	0.2121000
0.1422100	0.1465070
0.1771770	0.0406676
0.1424240	-0.0484501
0.0760392	-0.0836099
0.0264454	-0.0695511
0.0170230	-0.0435350
0.0320930	-0.0426125
0.0339342	-0.0733040
-0.0032770	-0.1069890
-0.0695063	-0.1042200
-0.1239220	-0.0487716
-0.1255670	0.0354258
-0.0662979	0.0984001
0.0195215	0.0995368
0.0768856	0.0380191
0.0681161	-0.0446803
-0.0007503	-0.0926320
-0.0844187	-0.0735138
-0.1301090	0.0006436
-0.1131230	0.0844959
-0.0504055	0.1330040
0.0166690	0.1320170
0.0558527	0.1032930
0.0675479	0.0814505
0.0802920	0.0819594
0.1222430	0.0859796
0.1915880	0.0546799
0.2500210	-0.0373915
0.2460370	-0.1755650
0.1519010	-0.3063950
-0.0128734	-0.3678940
-0.1893310	-0.3278540
-0.3132900	-0.2031840
-0.3518910	-0.0469802
-0.3171710	0.0865122
-0.2487050	0.1732600
-0.1802350	0.2251520
-0.1163180	0.2681380
-0.0362632	0.3118240
0.0790756	0.3355680
0.2201200	0.3027010
0.3439340	0.1921720
0.3977480	0.0226771
0.3542400	-0.1507030
0.2323900	-0.2669190
0.0876887	-0.2954500
-0.0221433	-0.2528520
-0.0717639	-0.1876910
-0.0788490	-0.1451830
-0.0843010	-0.1374010
-0.1178960	-0.1400950
-0.1754060	-0.1168890
-0.2237440	-0.0512112
-0.2290060	0.0388983
-0.1848540	0.1142340
-0.1187920	0.1452260
-0.0711703	0.1357220
-0.0630354	0.1206820
-0.0779086	0.1387850
-0.0722942	0.2004080
-0.0080110	0.2755170
0.1173270	0.3114170
0.2643900	0.2680690
0.3754870	0.1455030
0.4103290	-0.0163401
0.3684520	-0.1645780
0.2828410	-0.2667590
0.1910160	-0.3260960
0.1064560	-0.3682910
0.0123882	-0.4115190
-0.1176450	-0.4438980
-0.2888460	-0.4268420
-0.4685320	-0.3227440
-0.5978970	-0.1265270
-0.6249040	0.1228110
-0.5350200	0.3599260
-0.3580000	0.5278170
-0.1466720	0.6048600
0.0557443	0.6058440
0.2354110	0.5585000
0.4010390	0.4754680
0.5577690	0.3445100
0.6842760	0.1451060
0.7334380	-0.1215410
0.6588190	-0.4134340
0.4489550	-0.6568300
0.1443220	-0.7800950
-0.1765880	-0.7505350
-0.4339120	-0.5896840
-0.5818110	-0.3576050
-0.6203640	-0.1184020
-0.5793440	0.0887409
-0.4893720	0.2547680
-0.3635410	0.3831370
-0.2022270	0.4677130
-0.0140988	0.4868370
0.1674850	0.4200150
0.2903400	0.2739890
0.3115430	0.0954270
0.2288890	-0.0441794
0.0917165	-0.0854393
-0.0200201	-0.0165924
-0.0375447	0.1164970
0.0598345	0.2335490
0.2354590	0.2618630
0.4176820	0.1708530
0.5371350	-0.0203936
0.5543760	-0.2623720
0.4634400	-0.5032440
0.2762760	-0.7047460
0.0067583	-0.8380960
-0.3294750	-0.8704030
-0.6991400	-0.7607860
-1.0358100	-0.4774020
-1.2446500	-0.0279118
-1.2339900	0.5186330
-0.9596720	1.0390500
-0.4557910	1.3953800
0.1689170	1.4877000
0.7693150	1.2919100
1.2159800	0.8628840
1.4334300	0.3049610
1.4082300	-0.2695510
1.1713200	-0.7697600
0.7740480	-1.1328100
0.2760520	-1.3157400
-0.2520010	-1.2903800
-0.7234490	-1.0523100
-1.0449700	-0.6388520
-1.1449200	-0.1377550
-1.0072700	0.3292380
-0.6883050	0.6473130
-0.3001370	0.7544230
0.0343199	0.6656470
0.2316210	0.4609290
0.2758520	0.2432500
0.2111730	0.0919018
0.1077660	0.0365081
0.0249604	0.0617229
-0.0070429	0.1318590
0.0179641	0.2140460
0.0979096	0.2846050
0.2304460	0.3202120
0.4050340	0.2891770
0.5876690	0.1578440
0.7162450	-0.0868337
0.7185600	-0.4138550
0.5475360	-0.7442980
0.2127690	-0.9763520
-0.2136450	-1.0286800
-0.6238720	-0.8774630
-0.9195200	-0.5649550
-1.0490900	-0.1752480
-1.0172400	0.2063600
-0.8647360	0.5249700
-0.6366240	0.7619510
-0.3615270	0.9177060
-0.0534618	0.9896150
0.2709010	0.9641690
0.5780950	0.8285340
0.8214100	0.5898930
0.9609980	0.2841150
0.9847570	-0.0360726
0.9123510	-0.3262470
0.7774730	-0.5697790
0.6009800	-0.7757220
0.3760130	-0.9552840
0.0785877	-1.0943100
-0.3016420	-1.1440600
-0.7318080	-1.0408200
-1.1300600	-0.7444850
-1.3911700	-0.2720520
-1.4302800	0.2960700
-1.2195800	0.8416050
-0.7980580	1.2507300
-0.2522630	1.4493300
0.3163610	1.4149900
0.8173400	1.1672300
1.1800600	0.7508420
1.3514600	0.2272520
1.2968400	-0.3235940
1.0126900	-0.8021760
0.5455790	-1.1036000
-0.0006263	-1.1504100
-0.4844070	-0.9301170
-0.7726050	-0.5141000
-0.7929880	-0.0408209
-0.5656800	0.3336760
-0.1954110	0.4952520
0.1718490	0.4119770
0.4051220	0.1375290
0.4303000	-0.2187260
0.2426560	-0.5347970
-0.1060800	-0.7103600
-0.5299490	-0.6826820
-0.9262630	-0.4298170
-1.1867000	0.0270701
-1.2111500	0.6172670
-0.9329510	1.2177500
-0.3519830	1.6684800
0.4416850	1.8130200
1.2739500	1.5544800
1.9305000	0.9019400
2.2251000	-0.0185125
2.0629000	-0.9976070
1.4705700	-1.8082100
0.5817680	-2.2729100
-0.4103820	-2.3064000
-1.3088100	-1.9218500
-1.9537400	-1.2100600
-2.2424600	-0.3100020
-2.1349200	0.6161200
-1.6563400	1.4025600
-0.8996760	1.9028800
-0.0194219	2.0209200
0.7945770	1.7429200
1.3650200	1.1528300
1.5818600	0.4151680
1.4387900	-0.2754240
1.0314100	-0.7587110
0.5160320	-0.9584910
0.0488398	-0.8951550
-0.2651850	-0.6593110
-0.3926240	-0.3648750
-0.3596890	-0.1074490
-0.2238750	0.0551782
-0.0492344	0.1010400
0.1047090	0.0339922
0.1849970	-0.1211440
0.1501100	-0.3164500
-0.0158630	-0.4815560
-0.2862070	-0.5383400
-0.5868990	-0.4304410
-0.8156730	-0.1539150
-0.8812640	0.2308450
-0.7438240	0.6176120
-0.4335540	0.8967430
-0.0360889	0.9994440
0.3469920	0.9200190
0.6395840	0.7059380
0.8120000	0.4253790
0.8739070	0.1342570
0.8500620	-0.1383810
0.7586710	-0.3829260
0.6063020	-0.5918270
0.3982720	-0.7491300
0.1511700	-0.8351510
-0.1059800	-0.8401990
-0.3441750	-0.7730110
-0.5496350	-0.6541220
-0.7269880	-0.4978160
-0.8846170	-0.2977610
-1.0115100	-0.0309985
-1.0643200	0.3179980
-0.9788090	0.7276510
-0.7036850	1.1256400
-0.2381970	1.4047900
0.3499590	1.4636500
0.9391690	1.2507200
