jMRUI Data Textfile

Filename: Ins.txt

PointsInDataset: 2048      
DatasetsInFile: 1         
SamplingInterval: 2.5E-1    
ZeroOrderPhase: 0E0       
BeginTime: 0E0       
TransmitterFrequency: 1.2322E8  
MagneticField: 2.9E0     
TypeOfNucleus: 0E0       
NameOfPatient: Ins
DateOfExperiment: 
Spectrometer: 
AdditionalInfo: Ins
SignalNames: Ins.txt;


Signal and FFT
sig(real)	sig(imag)	fft(real)	fft(imag)
Signal 1 out of 1 in file
5.1464200	-0.0390023
4.9709200	-1.1089100
4.5474500	-2.0620600
3.9589400	-2.8430500
3.2834500	-3.4575800
2.5541400	-3.9426100
1.7583600	-4.3180400
0.8748010	-4.5574000
-0.0806939	-4.6002700
-1.0370600	-4.3970800
-1.8927100	-3.9522400
-2.5656700	-3.3323600
-3.0323900	-2.6328700
-3.3269800	-1.9271300
-3.5023000	-1.2355000
-3.5828800	-0.5362550
-3.5453700	0.1913450
-3.3410700	0.9259400
-2.9427900	1.5971000
-2.3798400	2.1187600
-1.7337500	2.4385300
-1.0970600	2.5660100
-0.5251970	2.5591400
-0.0167865	2.4791200
0.4639190	2.3476800
0.9406140	2.1387500
1.3904700	1.8099200
1.7483200	1.3491000
1.9466200	0.8000760
1.9610700	0.2468430
1.8274100	-0.2321990
1.6165400	-0.6063790
1.3866100	-0.9000600
1.1477900	-1.1603700
0.8658310	-1.4103300
0.5008590	-1.6232500
0.0513135	-1.7377700
-0.4308550	-1.7021600
-0.8657780	-1.5141100
-1.1931200	-1.2257500
-1.4059200	-0.9098650
-1.5456400	-0.6126500
-1.6625700	-0.3282400
-1.7718800	-0.0138587
-1.8385100	0.3664990
-1.8024300	0.8033880
-1.6248200	1.2378800
-1.3201400	1.5954500
-0.9497390	1.8324700
-0.5816550	1.9602500
-0.2469450	2.0288800
0.0747286	2.0834400
0.4297380	2.1257600
0.8449550	2.1109400
1.2968600	1.9811000
1.7189000	1.7108000
2.0418400	1.3296500
2.2366700	0.9051530
2.3281200	0.4985750
2.3688100	0.1272160
2.3941400	-0.2387030
2.3921300	-0.6426000
2.3113900	-1.0972900
2.1010100	-1.5638400
1.7522000	-1.9698500
1.3102400	-2.2537100
0.8475090	-2.4016900
0.4179710	-2.4502600
0.0272523	-2.4524300
-0.3595560	-2.4339300
-0.7788450	-2.3726400
-1.2283400	-2.2168200
-1.6567600	-1.9283400
-1.9916300	-1.5179200
-2.1844700	-1.0455300
-2.2398200	-0.5854910
-2.2063500	-0.1821600
-2.1373700	0.1706590
-2.0507200	0.5117910
-1.9183900	0.8704820
-1.6935600	1.2325500
-1.3541400	1.5410200
-0.9294760	1.7311500
-0.4896230	1.7736800
-0.1047110	1.6938100
0.1952870	1.5518200
0.4307040	1.4000700
0.6452620	1.2487300
0.8631420	1.0659800
1.0630400	0.8117950
1.1891500	0.4792820
1.1908800	0.1116000
1.0613300	-0.2188660
0.8452460	-0.4538600
0.6105340	-0.5829030
0.4044300	-0.6423540
0.2272030	-0.6811580
0.0426099	-0.7195980
-0.1835010	-0.7324430
-0.4463410	-0.6692020
-0.6955470	-0.4959410
-0.8642470	-0.2267270
-0.9122170	0.0794076
-0.8508330	0.3540340
-0.7312640	0.5609840
-0.6050690	0.7131420
-0.4870640	0.8523280
-0.3483810	1.0081600
-0.1445960	1.1675600
0.1428170	1.2783300
0.4835460	1.2842800
0.8118050	1.1655300
1.0663100	0.9534140
1.2270900	0.7088910
1.3217300	0.4806460
1.3969600	0.2743870
1.4774200	0.0561515
1.5431000	-0.2133870
1.5426000	-0.5401130
1.4321800	-0.8829640
1.2107400	-1.1763200
0.9243390	-1.3716600
0.6365870	-1.4672300
0.3870560	-1.5037400
0.1689380	-1.5294400
-0.0576725	-1.5614400
-0.3273840	-1.5723400
-0.6354790	-1.5123000
-0.9343060	-1.3494900
-1.1630200	-1.0982100
-1.2883100	-0.8130960
-1.3254500	-0.5537090
-1.3238900	-0.3459910
-1.3285500	-0.1695260
-1.3459100	0.0202059
-1.3406800	0.2517440
-1.2651400	0.5103540
-1.0988200	0.7443050
-0.8682120	0.9000250
-0.6314960	0.9595590
-0.4396710	0.9520610
-0.3033880	0.9307140
-0.1902830	0.9326220
-0.0545678	0.9519600
0.1237860	0.9465650
0.3200550	0.8727410
0.4803900	0.7217260
0.5602100	0.5300930
0.5563160	0.3561260
0.5084900	0.2399770
0.4694490	0.1776110
0.4659300	0.1280340
0.4803050	0.0480966
0.4664580	-0.0716759
0.3877060	-0.1974220
0.2478960	-0.2757720
0.0920312	-0.2731060
-0.0240925	-0.2005510
-0.0723591	-0.1058650
-0.0699473	-0.0384268
-0.0629958	-0.0138371
-0.0889149	-0.0048055
-0.1460330	0.0349727
-0.1936090	0.1322480
-0.1821690	0.2703210
-0.0911875	0.3980030
0.0544102	0.4647510
0.2013650	0.4554770
0.3058440	0.3989120
0.3633310	0.3434110
0.4082230	0.3187340
0.4836810	0.3128370
0.6048220	0.2812370
0.7432890	0.1817810
0.8450050	0.0084304
0.8677620	-0.2015500
0.8103410	-0.3924530
0.7113150	-0.5282960
0.6186490	-0.6155540
0.5532420	-0.6935200
0.4940420	-0.7998960
0.3958770	-0.9379110
0.2263880	-1.0700300
-0.0060543	-1.1431100
-0.2546540	-1.1260700
-0.4650620	-1.0316300
-0.6115750	-0.9058460
-0.7114960	-0.7935320
-0.8070700	-0.7056980
-0.9289760	-0.6136450
-1.0692300	-0.4739740
-1.1841100	-0.2653620
-1.2249600	-0.0091153
-1.1736100	0.2421960
-1.0555700	0.4395190
-0.9212550	0.5693690
-0.8094060	0.6591210
-0.7203540	0.7518270
-0.6192370	0.8698780
-0.4664750	0.9951510
-0.2522020	1.0807400
-0.0084335	1.0853500
0.2103800	1.0043500
0.3637980	0.8739680
0.4514260	0.7455340
0.5090730	0.6492280
0.5781880	0.5746730
0.6718990	0.4828370
0.7634520	0.3399800
0.8057690	0.1477170
0.7672820	-0.0537169
0.6568680	-0.2115800
0.5190070	-0.2964770
0.4028370	-0.3209770
0.3284450	-0.3271390
0.2757320	-0.3525940
0.2040270	-0.4009780
0.0873137	-0.4391290
-0.0618062	-0.4230740
-0.1977200	-0.3330360
-0.2728290	-0.1908970
-0.2706400	-0.0468297
-0.2160410	0.0548353
-0.1551840	0.1048330
-0.1203420	0.1314020
-0.1064000	0.1744030
-0.0766816	0.2510030
0.0064508	0.3391220
0.1495680	0.3913060
0.3190990	0.3686020
0.4622120	0.2689160
0.5419970	0.1284940
0.5605570	-0.0044640
0.5528440	-0.1040500
0.5562440	-0.1829150
0.5791990	-0.2784630
0.5928080	-0.4196800
0.5518110	-0.5999990
0.4291020	-0.7769360
0.2376570	-0.8990000
0.0232970	-0.9397060
-0.1662520	-0.9132490
-0.3127030	-0.8602770
-0.4354770	-0.8148250
-0.5709840	-0.7776200
-0.7389710	-0.7160060
-0.9217390	-0.5904770
-1.0722100	-0.3876160
-1.1449300	-0.1343750
-1.1268300	0.1172240
-1.0445100	0.3235770
-0.9430480	0.4760790
-0.8521560	0.6010510
-0.7656430	0.7334820
-0.6493540	0.8848430
-0.4714470	1.0296200
-0.2317890	1.1209600
0.0320157	1.1236400
0.2667720	1.0396000
0.4375020	0.9067010
0.5476490	0.7717540
0.6307660	0.6581850
0.7203180	0.5526030
0.8207540	0.4201440
0.9018550	0.2366180
0.9206680	0.0127923
0.8543630	-0.2078450
0.7190840	-0.3763720
0.5604520	-0.4703470
0.4228110	-0.5064360
0.3202990	-0.5244670
0.2313460	-0.5551690
0.1204070	-0.5961080
-0.0298732	-0.6139720
-0.2006760	-0.5713200
-0.3469970	-0.4573730
-0.4281520	-0.2993600
-0.4358170	-0.1457040
-0.3984810	-0.0336161
-0.3590630	0.0345856
-0.3426490	0.0887795
-0.3387290	0.1642880
-0.3111730	0.2715480
-0.2281960	0.3852830
-0.0894113	0.4613890
0.0706304	0.4687420
0.2051950	0.4118260
0.2872710	0.3270850
0.3266100	0.2557830
0.3591750	0.2138890
0.4171400	0.1816840
0.5022460	0.1207850
0.5826770	0.0055508
0.6157740	-0.1550170
0.5793130	-0.3214740
0.4876890	-0.4510380
0.3807930	-0.5270880
0.2940800	-0.5687810
0.2325260	-0.6136380
0.1681420	-0.6863670
0.0628723	-0.7776160
-0.1005040	-0.8487370
-0.3028730	-0.8589540
-0.5003460	-0.7944180
-0.6540970	-0.6772660
-0.7558980	-0.5480130
-0.8301570	-0.4347790
-0.9110840	-0.3327700
-1.0125000	-0.2095590
-1.1132900	-0.0321741
-1.1697000	0.2045620
-1.1452500	0.4699000
-1.0358800	0.7154070
-0.8715100	0.9058600
-0.6930670	1.0396000
-0.5226430	1.1432300
-0.3493800	1.2450600
-0.1417580	1.3477600
0.1231580	1.4212700
0.4358270	1.4215500
0.7539840	1.3212100
1.0264400	1.1292100
1.2232500	0.8847020
1.3498400	0.6300740
1.4348600	0.3835210
1.5015800	0.1317780
1.5448300	-0.1517630
1.5313000	-0.4776590
1.4232500	-0.8224320
1.2077100	-1.1360400
0.9092660	-1.3695800
0.5766750	-1.5028600
0.2533480	-1.5513200
-0.0462104	-1.5478800
-0.3366720	-1.5137300
-0.6392390	-1.4405200
-0.9538590	-1.2976100
-1.2479400	-1.0588500
-1.4706900	-0.7283320
-1.5826700	-0.3455910
-1.5788100	0.0341914
-1.4877300	0.3703400
-1.3484100	0.6550070
-1.1819300	0.9064840
-0.9796820	1.1433200
-0.7167290	1.3595300
-0.3797800	1.5201900
0.0118782	1.5812700
0.4088760	1.5189000
0.7563740	1.3462200
1.0228000	1.1051700
1.2116800	0.8393530
1.3482500	0.5683990
1.4517000	0.2826940
1.5145100	-0.0380281
1.5047100	-0.3970410
1.3896300	-0.7654870
1.1629400	-1.0918600
0.8544330	-1.3295000
0.5149820	-1.4618800
0.1875180	-1.5070800
-0.1143680	-1.4984700
-0.4047450	-1.4565900
-0.7025250	-1.3736000
-1.0055000	-1.2219200
-1.2814200	-0.9802490
-1.4834200	-0.6570000
-1.5783700	-0.2928320
-1.5670600	0.0599505
-1.4811200	0.3661180
-1.3591100	0.6231740
-1.2198300	0.8527190
-1.0527900	1.0746200
-0.8326700	1.2840000
-0.5464120	1.4488000
-0.2118260	1.5298300
0.1266820	1.5082700
0.4225220	1.3997400
0.6533570	1.2442100
0.8299860	1.0792500
0.9813030	0.9166520
1.1270300	0.7396760
1.2590200	0.5226010
1.3452400	0.2573900
1.3534100	-0.0331232
1.2761100	-0.3057310
1.1383600	-0.5233090
0.9816170	-0.6773690
0.8362430	-0.7898150
0.7030050	-0.8927080
0.5573270	-1.0014300
0.3728140	-1.1015300
0.1460080	-1.1590500
-0.0964800	-1.1463800
-0.3139050	-1.0639500
-0.4783320	-0.9411780
-0.5922140	-0.8159950
-0.6833580	-0.7083800
-0.7811390	-0.6078450
-0.8920110	-0.4842670
-0.9928150	-0.3137530
-1.0469000	-0.0999319
-1.0308100	0.1254430
-0.9513740	0.3229720
-0.8403360	0.4716590
-0.7307390	0.5808620
-0.6330270	0.6792230
-0.5289880	0.7891330
-0.3881090	0.9061930
-0.1939080	0.9993560
0.0397235	1.0317300
0.2745570	0.9864450
0.4719380	0.8781210
0.6165930	0.7415470
0.7225470	0.6062200
0.8169690	0.4761670
0.9145190	0.3302700
1.0018700	0.1427280
1.0443600	-0.0920016
1.0099600	-0.3488660
0.8924350	-0.5844950
0.7165540	-0.7630630
0.5212880	-0.8764790
0.3339140	-0.9440110
0.1544510	-0.9920650
-0.0380156	-1.0297800
-0.2622490	-1.0392100
-0.5128630	-0.9876490
-0.7564290	-0.8529070
-0.9490010	-0.6423210
-1.0621600	-0.3911790
-1.0982500	-0.1415810
-1.0837000	0.0824535
-1.0458200	0.2851480
-0.9908550	0.4871680
-0.9000300	0.7012960
-0.7464650	0.9144760
-0.5200170	1.0902300
-0.2409960	1.1899900
0.0478777	1.1974400
0.3055360	1.1278300
0.5148300	1.0153100
0.6866560	0.8880630
0.8433380	0.7499960
0.9943450	0.5826310
1.1231200	0.3654470
1.1952300	0.0988784
1.1818900	-0.1878490
1.0810500	-0.4503680
0.9201940	-0.6543870
0.7386050	-0.7938110
0.5624490	-0.8884970
0.3911530	-0.9637420
0.2050310	-1.0273200
-0.0121002	-1.0616200
