jMRUI Data Textfile

Filename: Tau.txt

PointsInDataset: 2048      
DatasetsInFile: 1         
SamplingInterval: 2.5E-1    
ZeroOrderPhase: 0E0       
BeginTime: 0E0       
TransmitterFrequency: 1.2322E8  
MagneticField: 2.9E0     
TypeOfNucleus: 0E0       
NameOfPatient: Tau
DateOfExperiment: 
Spectrometer: 
AdditionalInfo: Tau
SignalNames: Tau.txt;


Signal and FFT
sig(real)	sig(imag)	fft(real)	fft(imag)
Signal 1 out of 1 in file
3.9216200	-0.0000003
3.7485900	-1.0414600
3.2896800	-1.9548200
2.6352800	-2.6677100
1.8763200	-3.1721400
1.0631000	-3.4962000
0.2026840	-3.6568800
-0.7057740	-3.6313200
-1.6272700	-3.3693300
-2.4748100	-2.8376200
-3.1358600	-2.0618000
-3.5238200	-1.1331800
-3.6178100	-0.1733210
-3.4621500	0.7188540
-3.1272600	1.5001800
-2.6616400	2.1743800
-2.0709900	2.7507500
-1.3388000	3.2043200
-0.4710350	3.4697300
0.4712330	3.4747800
1.3784500	3.1892500
2.1360200	2.6521300
2.6742300	1.9562800
2.9892800	1.2012000
3.1216500	0.4478560
3.1097200	-0.2922360
2.9547100	-1.0281300
2.6236300	-1.7451800
2.0873500	-2.3813800
1.3639000	-2.8445500
0.5326700	-3.0588900
-0.2933180	-3.0072400
-1.0180500	-2.7377500
-1.6002300	-2.3303300
-2.0518900	-1.8477900
-2.4011500	-1.3078800
-2.6491400	-0.6955470
-2.7550400	-0.0043104
-2.6610800	0.7267820
-2.3387200	1.4108100
-1.8205800	1.9489700
-1.1930700	2.2796100
-0.5540400	2.4046300
0.0341626	2.3747000
0.5626740	2.2451200
1.0536300	2.0359800
1.5163100	1.7263000
1.9168600	1.2856500
2.1859200	0.7178330
2.2592100	0.0821346
2.1209900	-0.5257890
1.8174300	-1.0204800
1.4296900	-1.3672700
1.0261700	-1.5876400
0.6290840	-1.7268400
0.2191100	-1.8090600
-0.2271530	-1.8147000
-0.6968760	-1.6968500
-1.1299100	-1.4239700
-1.4465500	-1.0157600
-1.5940800	-0.5439340
-1.5776500	-0.0962536
-1.4524700	0.2703000
-1.2834400	0.5532170
-1.1023100	0.7884460
-0.8942620	1.0080600
-0.6227980	1.2046300
-0.2730700	1.3297000
0.1205240	1.3278400
0.4844330	1.1801700
0.7471080	0.9241520
0.8809400	0.6340390
0.9139840	0.3761020
0.9031300	0.1715080
0.8892830	-0.0060856
0.8683540	-0.1975460
0.7995710	-0.4158280
0.6440880	-0.6269550
0.4038580	-0.7692390
0.1305200	-0.7963880
-0.1031910	-0.7118640
-0.2485870	-0.5683470
-0.3092570	-0.4324260
-0.3316240	-0.3407450
-0.3654570	-0.2801230
-0.4244140	-0.2058870
-0.4764090	-0.0837149
-0.4707050	0.0773479
-0.3807490	0.2261670
-0.2297520	0.3043750
-0.0791475	0.2885390
0.0118333	0.2077330
0.0253885	0.1231470
-0.0060212	0.0849408
-0.0274625	0.0986130
-0.0046198	0.1257780
0.0504749	0.1181290
0.0903528	0.0583050
0.0710282	-0.0236902
-0.0109623	-0.0711776
-0.1118510	-0.0430301
-0.1697170	0.0545163
-0.1477170	0.1705950
-0.0591431	0.2450480
0.0442709	0.2499100
0.1116500	0.2060710
0.1300380	0.1630680
0.1312920	0.1578640
0.1639370	0.1842510
0.2517090	0.1963060
0.3706060	0.1433870
0.4622290	0.0101722
0.4736790	-0.1686110
0.3942170	-0.3300630
0.2613310	-0.4252600
0.1319820	-0.4501920
0.0409861	-0.4426370
-0.0219903	-0.4479470
-0.0996637	-0.4802250
-0.2286920	-0.5086820
-0.4051310	-0.4797320
-0.5804230	-0.3582130
-0.6914000	-0.1565300
-0.7020740	0.0703889
-0.6260840	0.2606700
-0.5133000	0.3850270
-0.4111230	0.4608490
-0.3299570	0.5308570
-0.2389350	0.6231780
-0.0948326	0.7236710
0.1181300	0.7818950
0.3682030	0.7465180
0.5914420	0.6035550
0.7313800	0.3886260
0.7736000	0.1639590
0.7496960	-0.0225838
0.7082200	-0.1658470
0.6751050	-0.2981970
0.6337370	-0.4554780
0.5397740	-0.6405900
0.3592700	-0.8128940
0.1009310	-0.9119990
-0.1823100	-0.8983330
-0.4240510	-0.7801750
-0.5848040	-0.6069530
-0.6721180	-0.4340380
-0.7259630	-0.2855980
-0.7811490	-0.1433010
-0.8357810	0.0311477
-0.8499440	0.2573490
-0.7757410	0.5113800
-0.5958750	0.7342100
-0.3414460	0.8675690
-0.0752216	0.8906640
0.1473190	0.8304900
0.3102420	0.7383750
0.4390030	0.6507890
0.5712690	0.5641190
0.7195360	0.4422670
0.8544390	0.2508960
0.9217880	-0.0081371
0.8806870	-0.2887700
0.7340410	-0.5257810
0.5283960	-0.6745130
0.3231770	-0.7358520
0.1523340	-0.7481880
0.0069673	-0.7530190
-0.1485740	-0.7606100
-0.3400280	-0.7418540
-0.5544190	-0.6523950
-0.7415100	-0.4705200
-0.8448490	-0.2197940
-0.8393160	0.0410659
-0.7470560	0.2538760
-0.6199930	0.3957620
-0.5022470	0.4873580
-0.4007800	0.5689110
-0.2861280	0.6629800
-0.1221540	0.7524010
0.0982807	0.7904460
0.3393000	0.7355260
0.5407490	0.5841460
0.6559890	0.3770370
0.6806000	0.1736430
0.6507260	0.0139414
0.6127010	-0.1039600
0.5871400	-0.2141120
0.5546960	-0.3488690
0.4740330	-0.5071070
0.3180720	-0.6489830
0.1006840	-0.7215160
-0.1267700	-0.6958020
-0.3068380	-0.5878400
-0.4119800	-0.4472860
-0.4584350	-0.3226240
-0.4879650	-0.2289210
-0.5317340	-0.1422220
-0.5839460	-0.0243208
-0.6052770	0.1413620
-0.5534470	0.3304180
-0.4176140	0.4896490
-0.2303830	0.5718940
-0.0481147	0.5674180
0.0858380	0.5083780
0.1675290	0.4432120
0.2289400	0.4004350
0.3077680	0.3691750
0.4137650	0.3109340
0.5174110	0.1933180
0.5696350	0.0198481
0.5377130	-0.1670580
0.4301920	-0.3124730
0.2919580	-0.3850530
0.1731330	-0.3958580
0.0951700	-0.3860100
0.0394917	-0.3928300
-0.0331170	-0.4202750
-0.1474840	-0.4360450
-0.2902560	-0.3974380
-0.4156140	-0.2861790
-0.4763430	-0.1256770
-0.4569060	0.0325458
-0.3836360	0.1431800
-0.3044710	0.1965060
-0.2536380	0.2209350
-0.2279220	0.2571700
-0.1922810	0.3238690
-0.1102370	0.4009980
0.0242631	0.4435480
0.1779040	0.4152190
0.2989360	0.3165320
0.3523560	0.1860700
0.3429100	0.0738421
0.3087880	0.0068231
0.2909840	-0.0274879
0.3016750	-0.0673668
0.3155230	-0.1437400
0.2903700	-0.2529970
0.2014730	-0.3565120
0.0631822	-0.4073490
-0.0784825	-0.3840230
-0.1768890	-0.3058540
-0.2161720	-0.2184100
-0.2194490	-0.1600920
-0.2279620	-0.1351160
-0.2671930	-0.1131520
-0.3257910	-0.0556315
-0.3632820	0.0514629
-0.3407150	0.1833690
-0.2509740	0.2918090
-0.1257820	0.3383400
-0.0140516	0.3207050
0.0521177	0.2724550
0.0782450	0.2363230
0.0996046	0.2316250
0.1509530	0.2403710
0.2370290	0.2224740
0.3263250	0.1483690
0.3729450	0.0241792
0.3500500	-0.1097660
0.2696490	-0.2060580
0.1738420	-0.2426120
0.1041830	-0.2360580
0.0723184	-0.2262410
0.0539637	-0.2438360
0.0105189	-0.2857410
-0.0783010	-0.3169230
-0.1957510	-0.2972760
-0.2975810	-0.2130850
-0.3427190	-0.0892130
-0.3220290	0.0272616
-0.2635540	0.0996630
-0.2104440	0.1260770
-0.1884070	0.1372750
-0.1873000	0.1700680
-0.1706810	0.2365460
-0.1058930	0.3126370
0.0082933	0.3547480
0.1375590	0.3319240
0.2347020	0.2492010
0.2720850	0.1445410
0.2595120	0.0616787
0.2342630	0.0193849
0.2310630	0.0002363
0.2548650	-0.0328642
0.2770890	-0.1052100
0.2580800	-0.2079250
0.1786810	-0.3018060
0.0569050	-0.3445860
-0.0629948	-0.3210820
-0.1409030	-0.2535550
-0.1678420	-0.1845610
-0.1694140	-0.1453660
-0.1833700	-0.1338000
-0.2285410	-0.1181590
-0.2888160	-0.0639850
-0.3243500	0.0367916
-0.3015020	0.1565880
-0.2188310	0.2499500
-0.1094550	0.2850560
-0.0179552	0.2652770
0.0307561	0.2246790
0.0472389	0.2010650
0.0662915	0.2070830
0.1174730	0.2212520
0.1999370	0.2055910
0.2807700	0.1363440
0.3181890	0.0243729
0.2920640	-0.0903188
0.2187610	-0.1659320
0.1391080	-0.1875290
0.0886445	-0.1755370
0.0726007	-0.1679070
0.0643750	-0.1896460
0.0284204	-0.2329100
-0.0500306	-0.2627190
-0.1510940	-0.2439180
-0.2328410	-0.1688640
-0.2609340	-0.0648284
-0.2329690	0.0245609
-0.1792260	0.0698802
-0.1393860	0.0755081
-0.1328930	0.0736573
-0.1453440	0.0976078
-0.1410550	0.1545960
-0.0921000	0.2189840
-0.0016545	0.2508850
0.0961436	0.2261360
0.1598110	0.1548960
0.1698380	0.0748050
0.1416530	0.0238679
0.1125970	0.0135044
0.1128970	0.0220081
0.1426670	0.0131435
0.1722980	-0.0344092
0.1658100	-0.1091950
0.1093550	-0.1742930
0.0231987	-0.1942820
-0.0519686	-0.1614490
-0.0840785	-0.1014640
-0.0722213	-0.0542504
-0.0457614	-0.0445580
-0.0408732	-0.0644260
-0.0723743	-0.0806613
-0.1222050	-0.0614846
-0.1532120	-0.0020199
-0.1377120	0.0707509
-0.0791265	0.1173450
-0.0102775	0.1148070
0.0303853	0.0734757
0.0266879	0.0288699
-0.0042526	0.0148930
-0.0260868	0.0386389
-0.0115856	0.0757864
0.0362444	0.0899216
0.0862529	0.0610241
0.1027880	0.0014616
0.0729250	-0.0526380
0.0166311	-0.0681022
-0.0278171	-0.0393099
-0.0321383	0.0078971
0.0013032	0.0358734
0.0420212	0.0234794
0.0550653	-0.0183551
0.0278139	-0.0554911
-0.0203894	-0.0570258
-0.0529973	-0.0192102
-0.0441620	0.0313008
0.0013876	0.0573108
0.0515480	0.0390060
0.0706837	-0.0111744
0.0460781	-0.0579203
-0.0029579	-0.0695297
-0.0401013	-0.0414414
-0.0396915	0.0009168
-0.0060767	0.0219984
0.0299727	0.0035728
0.0349846	-0.0411004
-0.0013915	-0.0770824
-0.0580348	-0.0740967
-0.0977936	-0.0294534
-0.0950248	0.0297624
-0.0544326	0.0668412
-0.0070408	0.0626668
0.0135435	0.0294443
-0.0034604	0.0006597
-0.0381459	0.0049986
-0.0554858	0.0440584
-0.0324503	0.0907499
0.0239089	0.1095770
0.0811122	0.0834206
0.1051180	0.0265720
0.0853615	-0.0258138
0.0420887	-0.0438136
0.0105507	-0.0246509
0.0141119	0.0060722
0.0466607	0.0146276
0.0775882	-0.0145510
0.0754777	-0.0665023
0.0324945	-0.1066560
-0.0290231	-0.1067460
-0.0727625	-0.0661011
-0.0751745	-0.0122309
-0.0425648	0.0196878
-0.0057046	0.0128855
0.0038517	-0.0190465
-0.0222496	-0.0432536
-0.0630150	-0.0332371
-0.0843737	0.0104888
-0.0654559	0.0603632
-0.0149295	0.0823742
0.0349888	0.0616755
0.0523167	0.0138449
0.0289128	-0.0266950
-0.0138822	-0.0323029
-0.0417325	-0.0024218
-0.0333587	0.0367103
0.0035816	0.0525892
0.0387433	0.0315565
0.0426421	-0.0105703
0.0095843	-0.0403894
-0.0374250	-0.0322970
-0.0635309	0.0118687
-0.0479021	0.0637749
0.0008905	0.0893949
0.0515308	0.0739378
0.0735131	0.0321246
0.0597249	-0.0038218
0.0310070	-0.0092312
0.0193458	0.0139853
0.0425515	0.0387679
0.0896878	0.0337005
0.1283460	-0.0126054
0.1283040	-0.0820009
0.0837432	-0.1393610
0.0173100	-0.1577340
-0.0369217	-0.1371330
-0.0586088	-0.1029120
-0.0553795	-0.0851601
-0.0554697	-0.0948776
-0.0844798	-0.1150940
-0.1439980	-0.1136800
-0.2083990	-0.0681596
-0.2423460	0.0162565
-0.2258720	0.1090690
-0.1682060	0.1755220
-0.1000740	0.2004290
-0.0504421	0.1969510
-0.0254162	0.1939050
-0.0052149	0.2114970
0.0385935	0.2440550
0.1188120	0.2629850
0.2198430	0.2378060
0.3062500	0.1594070
0.3463570	0.0479785
