 $NMID ID='dataset13', FMTDAT='(8E13.5)'
 TRAMP=1, VOLUME=1 $END
  4.99414E+04  3.94483E+00  4.97537E+04  7.38727E+00  4.95327E+04 -3.38700E+01  4.92797E+04 -3.85066E+01
  4.89164E+04 -7.86501E+01  4.87268E+04 -8.42515E+01  4.85951E+04 -7.24316E+01  4.83071E+04 -9.90856E+00
  4.80042E+04 -8.44239E+01  4.78029E+04  5.43731E+01  4.76632E+04  6.51794E+01  4.74505E+04  6.65827E+01
  4.72181E+04  2.56843E+01  4.69591E+04  5.43113E+01  4.67116E+04 -5.90482E+01  4.65474E+04  4.92825E+01
  4.62526E+04  6.21071E+01  4.60325E+04  1.07749E+01  4.58207E+04  6.89321E+01  4.57242E+04  2.89009E+01
  4.54837E+04  5.79518E+01  4.52331E+04  2.69532E+01  4.49428E+04  3.18995E+01  4.48125E+04 -3.50081E+01
  4.46730E+04 -5.69299E+01  4.44377E+04 -4.80353E+01  4.41380E+04  4.31351E+01  4.39053E+04  6.11247E+01
  4.38339E+04 -2.85620E+01  4.35871E+04  6.64154E+01  4.34033E+04  2.85857E+01  4.31568E+04  4.79996E+01
  4.30079E+04  4.92197E+01  4.27146E+04 -2.98334E+01  4.25533E+04  4.42666E+01  4.22617E+04  6.45283E+01
  4.22003E+04 -5.58252E+00  4.20176E+04  7.91613E+01  4.18026E+04  8.79845E+00  4.15678E+04 -1.68633E+01
  4.12936E+04  7.03500E+01  4.11215E+04 -2.18414E+01  4.09369E+04  5.05276E+01  4.07135E+04  1.61475E+01
  4.04972E+04  4.49768E+01  4.04142E+04  2.29138E+01  4.01551E+04 -2.67265E+01  4.00719E+04  3.82868E+01
  3.97947E+04  5.83467E+01  3.96630E+04  2.98971E+01  3.93954E+04  3.46302E+01  3.92783E+04  6.43874E+01
  3.90929E+04 -4.40152E+01  3.89769E+04 -3.81227E+01  3.86858E+04 -5.03945E+01  3.85299E+04 -4.59877E+01
  3.82830E+04  5.85430E+01  3.82159E+04 -4.37282E+01  3.79892E+04 -3.15905E+01  3.78795E+04  5.46816E+01
  3.75553E+04  7.60947E+01  3.75329E+04  2.96647E+01  3.73378E+04  3.19487E+01  3.71030E+04  6.17353E+01
  3.69755E+04 -2.20113E+00  3.67659E+04 -3.20845E+01  3.65337E+04 -9.16201E+00  3.64294E+04  7.42061E+01
  3.63245E+04 -3.34591E+01  3.59864E+04  1.77416E+01  3.58809E+04  2.31188E+00  3.57661E+04 -7.68148E+01
  3.56233E+04 -2.96917E+01  3.53663E+04  6.80818E+01  3.53065E+04  4.69742E+01  3.49825E+04  5.29757E+01
  3.48864E+04 -8.11411E+01  3.46905E+04  4.84009E+01  3.45756E+04 -1.15301E+00  3.44558E+04 -1.36948E+01
  3.42153E+04 -8.40505E+01  3.40533E+04  4.95183E+01  3.38639E+04  2.40106E+01  3.37408E+04  9.69794E+00
  3.36762E+04 -1.54877E+00  3.34935E+04 -1.64234E+01  3.32418E+04 -5.87204E+01  3.32187E+04  1.43549E+01
  3.29153E+04 -8.11725E+01  3.27603E+04  1.59556E+01  3.26746E+04 -4.79544E+01  3.25352E+04  4.86611E+01
  3.23017E+04 -6.83757E+01  3.22174E+04  7.07351E+01  3.21420E+04 -3.57691E+01  3.18770E+04  6.95591E+01
  3.17816E+04 -2.62241E+01  3.16190E+04 -3.53876E+01  3.14438E+04 -1.59565E+01  3.13308E+04  3.73458E+01
  3.11110E+04  4.02338E+01  3.09785E+04  3.63724E+01  3.08092E+04  5.98152E+00  3.06966E+04  6.01559E+01
  3.05399E+04 -3.27058E+01  3.04365E+04  5.03500E+01  3.03639E+04  3.55994E+01  3.00870E+04  7.57027E+00
  2.99419E+04  1.12986E+01  2.99433E+04  7.62195E+01  2.97148E+04  3.40931E+01  2.96167E+04  1.25102E+01
  2.94524E+04 -3.49444E+01  2.92914E+04  5.90696E+01  2.91803E+04  8.31245E+01  2.91240E+04  6.06556E+01
  2.88283E+04 -3.42399E+01  2.87883E+04  5.25634E+01  2.86970E+04  4.93902E+00  2.84902E+04  6.40693E+01
  2.84415E+04 -3.27829E+01  2.81934E+04 -5.96709E+01  2.80239E+04  5.69732E+01  2.78921E+04 -2.29813E+01
  2.77882E+04  2.88395E+01  2.77825E+04 -4.22889E+01  2.75549E+04 -7.78863E+01  2.75191E+04  1.80741E+01
  2.72414E+04  7.32748E+01  2.71358E+04 -1.57622E+01  2.69978E+04  2.66580E+01  2.69420E+04 -6.83027E+01
  2.67557E+04  2.66999E+01  2.67061E+04 -6.08731E+01  2.65910E+04 -6.78622E+01  2.65080E+04 -6.01823E+01
  2.62610E+04 -1.81793E+01  2.61330E+04 -3.92247E+01  2.60173E+04  2.61136E+01  2.58687E+04 -6.48037E+01
  2.58298E+04 -4.77916E+01  2.56338E+04  6.12789E+01  2.55391E+04 -5.61471E+00  2.54822E+04 -6.69996E+01
  2.52633E+04  8.19339E+01  2.51977E+04  6.16516E+00  2.50518E+04 -7.10901E+01  2.50489E+04  4.41061E-01
  2.49137E+04 -6.46288E+01  2.47310E+04  7.17096E+00  2.46480E+04  2.29700E+01  2.45408E+04  3.91465E+01
  2.44421E+04  5.79249E+01  2.42717E+04 -7.22366E+01  2.40997E+04 -7.72099E+01  2.39785E+04  3.01083E+01
  2.38883E+04 -8.00490E+00  2.37855E+04  3.84642E+01  2.37944E+04  2.34277E+01  2.35362E+04 -3.93893E+01
  2.34673E+04  8.52545E+01  2.33695E+04 -8.04174E+01  2.33426E+04 -2.21337E+01  2.31745E+04  5.83508E+01
  2.31010E+04 -1.82790E+01  2.29874E+04 -1.15665E+01  2.29105E+04 -3.26823E+00  2.28073E+04  6.60390E+01
  2.26640E+04 -4.67014E+01  2.24916E+04  7.38604E+01  2.24077E+04  5.10402E+00  2.23758E+04  4.74841E+01
  2.21648E+04 -3.22665E+01  2.21537E+04  2.13932E+01  2.19317E+04 -4.43773E+01  2.19276E+04 -5.72153E+01
  2.17191E+04 -4.09125E+01  2.16537E+04  3.67679E+01  2.15355E+04 -4.85389E+01  2.14336E+04  3.04936E+01
  2.14120E+04 -8.45131E+01  2.13450E+04  7.54843E+01  2.11151E+04 -6.75833E+01  2.11151E+04 -6.63290E+01
  2.09776E+04 -4.28638E+01  2.09492E+04  8.36229E+01  2.07813E+04  1.04433E+01  2.06581E+04  5.34559E+01
  2.06430E+04  7.62025E+01  2.04444E+04 -7.08326E+01  2.04199E+04 -7.17758E+01  2.02233E+04 -3.82019E+01
  2.01686E+04  1.22102E+01  2.01730E+04  6.55745E+01  2.00986E+04 -1.27856E+01  1.99116E+04  6.91989E+01
  1.98121E+04 -7.48310E+00  1.97437E+04  5.13596E+01  1.97139E+04  8.41717E+01  1.95077E+04 -7.72066E+01
  1.94643E+04 -4.10190E+01  1.93318E+04 -4.22663E+01  1.92671E+04 -9.19608E+00  1.92274E+04  5.39193E+01
  1.90505E+04 -5.55171E+01  1.90582E+04  7.65673E+01  1.89796E+04  3.64982E+01  1.88182E+04 -8.37842E+01
  1.87929E+04  3.41713E+01  1.86854E+04 -4.62602E+00  1.85169E+04 -6.77850E+01  1.83966E+04 -7.86548E+01
  1.83027E+04  3.88861E+00  1.82251E+04 -7.28056E+01  1.81376E+04  2.17543E+01  1.81023E+04 -6.45519E+00
  1.81101E+04  7.78491E+01  1.79995E+04  7.66963E+01  1.78489E+04  4.42529E+01  1.77306E+04 -2.45613E+01
  1.76867E+04  5.77186E+01  1.76659E+04  6.84931E+01  1.74626E+04 -4.18976E+01  1.73790E+04 -5.73263E+01
  1.73959E+04 -6.25133E+01  1.72154E+04  3.39903E+01  1.71329E+04  3.20181E+01  1.71775E+04  1.08859E+01
  1.70853E+04  4.23317E+01  1.69230E+04  6.37895E+01  1.69424E+04 -6.75880E+01  1.67910E+04  1.90733E+01
  1.67688E+04 -7.59653E+01  1.66993E+04  7.84707E+01  1.66163E+04  1.73117E+01  1.65151E+04  3.67248E+01
  1.63425E+04 -5.15063E+01  1.63734E+04  1.82447E+01  1.63103E+04  6.12186E+01  1.62490E+04 -1.13452E+01
  1.60304E+04  3.54406E+01  1.60613E+04  7.42636E+01  1.59495E+04  4.53247E+01  1.58221E+04 -9.83748E+00
  1.57443E+04  5.79173E+01  1.56939E+04 -3.41471E+01  1.56644E+04 -2.45217E+01  1.56606E+04 -1.72608E+01
  1.54807E+04  8.21611E+01  1.54768E+04 -5.74414E+01  1.54531E+04 -2.92778E+01  1.53294E+04 -5.42796E+01
  1.51631E+04 -4.76109E+01  1.52150E+04  5.19650E+01  1.51664E+04 -1.28967E+01  1.49660E+04  5.26031E+01
  1.49217E+04  3.98620E+00  1.48675E+04 -8.51631E+01  1.47594E+04 -6.16201E+01  1.47255E+04 -6.22584E+01
  1.46903E+04  1.20365E+00  1.46554E+04 -4.45520E+01  1.45564E+04  2.92086E+01  1.44064E+04 -5.08910E+01
  1.44055E+04 -1.74648E+00  1.43770E+04  1.14639E+01  1.42056E+04  3.24562E+01  1.42250E+04 -2.44107E+01
  1.41374E+04  7.47270E+01  1.39805E+04 -1.15885E+01  1.39931E+04  3.54300E+01  1.38464E+04  8.14088E+01
  1.39391E+04  7.49237E+01  1.37876E+04  9.33991E+00  1.37629E+04  4.08777E+00  1.36632E+04  4.76628E+01
  1.36173E+04  2.03444E+01  1.35328E+04  7.74818E+01  1.34820E+04  7.47536E+01  1.33481E+04  3.50753E+01
  1.32781E+04  2.05942E+01  1.32507E+04  4.65675E+00  1.32289E+04 -4.07577E+01  1.32229E+04 -9.43931E+00
  1.30257E+04 -6.82858E+01  1.30535E+04 -1.61404E+01  1.29692E+04 -7.80028E+01  1.29166E+04  5.51577E+01
  1.28415E+04 -2.56879E+01  1.28204E+04 -3.29765E+01  1.26911E+04  4.22898E+01  1.26765E+04 -3.47384E+01
  1.25921E+04 -2.26612E+01  1.26375E+04 -1.57585E+01  1.24432E+04 -3.32012E+01  1.23774E+04 -5.97554E+01
  1.24385E+04  4.34542E+01  1.23886E+04 -4.70037E+01  1.23001E+04  3.69007E+01  1.22401E+04  1.17481E+01
  1.21743E+04  7.74597E+01  1.21314E+04 -1.97011E+01  1.20327E+04  4.26151E+01  1.20600E+04 -7.76966E+01
  1.19736E+04  2.50690E+01  1.18167E+04  7.35462E+01  1.17921E+04 -6.30037E+01  1.18304E+04  5.16950E+01
  1.16487E+04 -3.82062E+01  1.15660E+04 -4.90615E+01  1.15286E+04 -6.79899E+01  1.15213E+04  2.79046E+01
  1.14720E+04 -1.66827E+01  1.14231E+04  7.65582E+01  1.14517E+04  5.45365E+01  1.13146E+04 -9.73178E+00
  1.12600E+04 -7.98443E+01  1.11409E+04 -4.09512E+01  1.12362E+04  1.82823E+01  1.11119E+04  2.01565E+01
  1.10984E+04 -1.63031E+01  1.09202E+04 -6.30134E+01  1.10178E+04 -7.21982E+01  1.08139E+04 -5.13268E+01
  1.08859E+04 -5.71612E+01  1.08239E+04 -5.09254E+01  1.07427E+04 -5.18039E+01  1.06118E+04  6.68807E+01
  1.06117E+04  4.56055E+01  1.05300E+04 -2.82334E+01  1.06177E+04 -3.23101E+01  1.05384E+04  5.88213E+01
  1.03746E+04  7.34440E+01  1.03195E+04  5.88875E+01  1.03764E+04 -2.13085E+00  1.03221E+04 -1.25592E+01
  1.02635E+04  4.41351E+00  1.01336E+04  2.36701E+01  1.00952E+04  6.30019E+01  1.00207E+04  5.50800E+01
  1.01435E+04 -5.54964E+01  9.96263E+03  7.48725E+01  9.89888E+03  3.73933E+01  9.92021E+03 -1.89643E+01
  9.89314E+03 -3.71429E+01  9.76788E+03  4.18207E+01  9.74052E+03 -6.65108E+01  9.71894E+03 -2.54558E+01
  9.73596E+03  3.90374E+00  9.60895E+03 -6.42779E+01  9.60384E+03  2.61096E+01  9.60702E+03 -2.69944E+01
  9.58697E+03 -7.83878E+01  9.37964E+03  2.66465E+01  9.39425E+03  6.67399E+01  9.34141E+03 -3.66631E+00
  9.33442E+03  4.23439E+01  9.28990E+03 -7.23347E+00  9.20276E+03  8.02203E+01  9.26756E+03 -1.41324E+01
  9.16487E+03 -4.20898E+01  9.07271E+03 -2.51412E+01  9.00335E+03 -8.49901E+01  8.95611E+03 -7.35284E+01
  8.97448E+03 -5.74537E+01  8.86314E+03 -6.58607E+01  8.89658E+03 -1.50020E+01  8.82738E+03 -1.98885E+01
  8.87919E+03 -3.28095E+01  8.69993E+03  4.75745E+01  8.68299E+03 -5.47737E+01  8.71746E+03  5.78051E+01
  8.65357E+03  6.63913E+01  8.56756E+03 -6.77279E+01  8.48646E+03 -8.24161E+01  8.53034E+03 -6.35245E+01
