 $NMID ID='dataset13', FMTDAT='(8E13.5)'
 TRAMP=1, VOLUME=1 $END
  2.46065E+02  8.86131E+01  4.22862E+02  1.73045E+02  2.88888E+02  3.11668E+02  1.22629E+02  3.58103E+02
 -3.87155E+01  3.52890E+02 -1.35105E+02  2.39898E+02 -1.66351E+02  1.47428E+02 -1.49122E+02  3.66774E+01
 -1.25794E+02 -2.35046E+01 -3.86719E+01 -6.29852E+01 -2.76342E+00 -3.46898E+01  4.74382E+01  1.51428E+01
  4.27390E+01  4.79391E+01  1.50525E+01  6.67187E+01 -3.09905E+01  6.51377E+01 -5.45122E+01  5.05990E+01
 -5.39174E+01  2.79779E+01 -9.85581E+01  1.63708E+01 -9.23789E+01  2.23461E+01 -6.76450E+01 -3.09819E+01
 -5.19229E+01 -3.99592E+01 -5.85511E+01 -4.23121E+01 -5.27930E+01 -5.07776E+01 -1.50307E+01 -6.77521E+01
  4.22016E+00 -4.19720E+01  2.07504E+01 -5.20869E+01  5.34075E+01  5.45554E+00  1.84120E+01  9.41298E+00
  1.58688E+01  2.24737E+01 -2.91236E+01  4.20815E+01 -4.83877E+01 -2.13206E+00 -5.38937E+01 -1.79550E+01
 -4.05825E+01 -5.37777E+01 -2.58148E+01 -5.36064E+01 -1.61845E+01 -7.59846E+01  4.65266E+01 -8.76685E+01
  7.06019E+01 -6.18350E+01  4.83885E+01 -2.39588E+01  5.25039E+01 -4.27359E+00  6.92783E+01 -1.69663E+00
  7.76792E+01  2.28782E+01  6.34753E+01  3.33814E+01  2.92427E+01  3.31385E+01  1.69887E+01  3.54132E+01
 -1.81099E+01  3.97277E+01 -1.22898E+01  3.89579E+01 -3.04736E+01  2.36946E+00 -2.80663E+01  1.59502E+01
 -1.06009E+01 -8.70530E+00  5.39811E+00  1.26292E+01 -3.18597E+00  1.32776E+01  3.25708E+01  4.28476E+00
 -1.25322E+01  4.15014E+01 -2.64856E+01  4.08055E+01 -2.15115E+01  2.91533E+01 -6.77702E+01  2.10051E+01
 -3.47428E+01 -1.82306E+01 -1.88424E+01 -5.68870E+01  1.27798E+01 -6.38649E+01  4.73347E+01 -3.04205E+01
  5.48259E+01 -1.87049E+01  6.62023E+01  1.99142E+00  4.66615E+01  4.39052E+01  1.38154E+01  5.96198E+01
 -5.48862E+00  7.43576E+01 -2.81140E+01  5.18354E+01 -2.96463E+01  3.87181E+01 -6.61111E+01 -1.39263E+00
 -5.19245E+01  9.45481E+00 -5.73132E+01 -1.72063E+01 -3.81003E+01 -3.07031E+01 -1.23561E+01 -3.42386E+01
 -4.53642E-01 -3.39371E+01 -8.51776E+00 -5.31792E+00  1.39305E+01 -4.13567E+00  2.14933E+01 -1.21349E+01
  1.67250E+01 -1.80085E+01 -1.00665E+01 -1.06873E+01 -5.70837E+00  1.51472E+01 -7.65732E+00  2.49160E+01
 -1.80296E+01  3.65441E+00 -3.53679E+01 -2.07392E+00 -3.23209E+01 -1.09554E+01  5.63913E+00 -4.27648E+01
 -4.05812E+00 -3.36198E+01  4.98318E+01 -2.79870E+01  3.50323E+01 -1.18955E+01  5.64919E+01  1.37726E+01
  1.25390E+01  2.20163E+01 -8.80247E+00  2.76768E+01 -3.07476E+01  2.48695E+01 -2.09523E+01  3.04194E+01
 -1.59336E+01  2.65115E+00 -1.53835E+01 -3.70482E+01  5.92539E+00 -1.74266E+01  1.40401E+01 -3.67581E+01
  1.23613E+01 -2.53635E+01  4.56162E+01 -2.45201E+01  2.54945E+01  2.48354E+01  5.78863E+01  4.58497E+01
  2.97661E+01  1.99453E+01  1.91712E+01  6.56349E+01  4.51417E+00  6.04692E+01 -3.45435E+01  5.10616E+01
 -2.72829E+01  3.77649E+01 -5.81531E+01 -8.42100E-02 -3.66928E+01 -1.54892E+01 -5.38487E+01 -4.31266E+00
 -3.64650E+01 -1.87570E+01 -1.74513E+01 -4.88066E+01  2.09349E+01 -4.64028E+01  1.51763E+01 -2.67736E+01
  4.84615E+00 -9.10455E+00  7.33185E-01  1.47278E+01  1.28555E+00  1.09004E+01  1.26779E+00  2.96157E+01
 -1.54846E+01 -9.78005E-01 -1.32092E+01 -2.35402E+01 -1.09796E+01 -3.30538E+01  9.84490E+00 -3.39752E+00
  1.80950E+01 -2.41519E+01  4.28894E+01 -1.04133E-01  3.94462E+01 -4.60050E+00  3.97388E+01 -4.14095E+00
  3.57172E+01  3.48335E+00  1.30169E+01  1.17477E+01  5.57897E+00  1.25571E+01 -8.24229E+00  1.86216E+01
 -4.50290E+01  8.89519E+00 -1.37672E+01 -3.48647E+00 -2.62744E+01  3.56870E+00 -2.94549E+01 -2.75946E+01
 -2.31022E+01 -4.26036E+01 -8.63588E+00 -3.08708E+01 -1.27158E+00 -2.64676E+01  1.89722E+01 -2.56409E+01
  3.31608E+01 -2.82156E+01  1.62891E+01 -2.26728E-01  3.20841E+01  9.24202E+00  3.61661E+01  3.67560E+01
 -3.19650E+00  1.05054E+01  1.86123E+01  3.89662E+01 -7.85350E+00  1.14038E+01 -1.59588E+01 -4.96235E+00
 -1.05474E+01  1.77463E+01  1.04281E+01 -3.10390E-01 -2.35910E+00  2.73317E+00  1.35448E+01  2.09523E+01
 -3.94060E-01  2.02167E+00 -1.42186E+01  2.30388E+01 -1.78743E+01  3.06268E+01 -8.13990E+00  3.89598E+00
 -1.29656E+01  2.44234E+01 -3.11249E+01  9.63191E+00 -3.66416E+01  3.23394E+00  1.50321E+00 -3.23158E+01
  8.90746E+00 -3.82750E+01 -1.13947E+01 -4.18301E+01  2.70127E+01 -7.33147E+00  1.97948E+01 -5.05704E+00
  4.24241E+01  2.05574E+01  3.78027E+01  1.57743E+00  1.59487E+01  1.83518E+01 -1.90022E+01  1.47400E+01
 -8.18902E+00  3.26612E+01 -3.16195E+01 -2.94201E+00 -1.04068E+01  4.65808E+00 -3.25831E+01 -2.56367E+01
 -2.73468E+01 -1.86295E+01 -2.12785E+01 -1.18550E+01 -1.05601E+00 -2.77188E+01  2.03420E+01 -2.85632E+01
  5.29893E+00 -3.94647E+01  2.74139E+01 -2.28441E+01  2.34080E+01 -1.03271E+01  3.93471E+01 -1.58675E-01
  1.96494E+01  1.44961E+01  1.01398E+01 -1.61037E+01 -7.91924E-01 -1.45071E+01  7.43609E+00 -6.24125E+00
  6.37412E+00 -1.53551E+01  1.43328E+01 -7.62044E+00  2.28705E+01  2.16862E+01  3.83540E+01  3.39517E+01
  2.19467E+01  3.42857E+01  1.69586E+01  1.46059E+01  2.08352E+01  2.17665E+01 -2.06840E+01  1.67665E+01
 -3.06572E+01  1.94636E+01 -6.52957E+00  2.20378E+01 -3.67495E+01  4.22590E+00 -3.74097E+01 -3.19329E+00
 -2.87854E+01  9.19084E+00 -1.67421E+01 -4.78219E+00 -9.25804E+00 -2.95538E+01 -1.36487E+01 -3.68827E+00
  2.08714E+01 -3.14210E+01 -9.08698E+00 -3.18120E+00 -1.95173E+00  1.69815E+00  1.69412E+01  9.89429E-01
  2.15490E+01  7.55258E+00  1.38790E+01  5.41557E+00 -2.59785E+01  1.24144E+00 -1.95265E+01 -4.27383E+00
 -1.91412E+01 -1.20601E+01  2.36609E+00  4.15952E+00 -6.38870E+00 -2.67221E+00  8.55015E+00 -5.93002E+00
 -5.07173E+00 -1.26910E+01 -1.05756E+01 -1.49426E+01 -1.19816E+01 -7.15897E+00 -1.64389E+01 -8.91416E+00
 -1.55559E+01  1.40392E+01 -9.03713E+00 -1.64098E+01  4.79825E+00 -8.00549E-01  5.12551E-01 -7.32976E+00
  1.47723E+01  2.32270E+00 -1.71382E+01 -1.68539E+01  2.80671E+01 -1.23941E+01  2.34354E+00 -3.39543E+01
  1.39268E+01 -1.95503E+01  2.14963E+01 -9.45244E+00  3.14679E+01  1.19823E+00  7.19703E+00  3.13361E+01
  1.09743E+01  3.92165E+01  9.53651E+00  1.36137E+01  1.01920E+01  1.48453E+01 -2.78567E+01  6.10864E+00
 -2.55808E+01  1.58868E+01 -2.42965E+01 -9.37697E+00  3.92699E+00 -1.57502E+01 -2.02659E+00 -2.56863E+01
  1.55070E+00 -1.95797E+01 -2.66146E+00 -1.13053E+01  5.45053E+00 -1.59356E+01  1.24336E+00  3.29998E+00
 -6.15375E+00 -7.73339E+00  1.42504E+01  2.14910E+00  1.11172E+01  6.32155E-01 -8.28431E+00  7.61073E+00
  1.55571E+01 -1.11123E+01 -1.30998E+01  1.39967E+01 -9.27294E+00  9.76429E+00  2.25586E+00 -5.31942E+00
 -7.31451E+00  1.60555E+01 -7.94830E+00  9.09446E+00  1.59273E+00 -6.43257E+00 -8.61367E+00 -5.13558E+00
 -5.12498E+00  2.55491E+01 -1.97101E+00  4.22383E+00 -3.17768E+01 -4.52727E+00 -2.97036E+01 -6.06026E+00
 -3.82258E+01  9.07934E+00 -1.98069E+00 -2.13668E+01 -1.43641E+01 -2.83366E+00  1.54484E+01 -2.16281E+01
  1.13946E+01 -2.82787E+01  2.14783E+01  1.55472E+00  2.26798E+01  1.30769E+00  2.21802E+01 -1.67945E+01
  1.79688E+01  1.95167E+01 -7.27073E+00 -1.07963E+00  1.82114E+00  2.56255E+01 -1.10489E+01  7.84261E+00
  2.80327E-01 -1.69391E+01 -1.17472E+01  9.74430E-01 -9.66187E+00 -1.32566E+01  1.69343E+01 -6.67362E+00
  1.14699E+01 -8.29203E+00  6.70094E-02 -4.57743E+00 -5.91192E+00  1.97684E+01 -9.10431E+00  2.56514E+00
  1.31952E+00 -3.68933E+00  1.46204E+01  6.61998E+00  1.99119E+00  1.40022E+01 -1.45586E+01  2.52562E+01
  1.03793E+01  1.93130E+01  6.51786E+00 -1.96597E+01 -2.11446E+01 -1.69296E+01  9.52405E+00 -1.23008E+01
  1.02190E+00 -1.51967E+01  8.26288E+00 -1.40359E+01 -3.89946E+00 -1.40561E+00  4.99076E-01  1.21256E+00
 -1.25153E+01 -4.20690E+00  1.43194E+01  1.28302E+01 -1.30806E+00  3.25363E+01 -6.34152E+00  1.64234E+01
  3.30912E+00  1.69398E+01 -8.19600E+00 -3.64963E+00 -1.47566E+01 -1.57775E+01 -8.69786E+00 -2.65408E+01
  1.96365E+00 -1.63066E+01 -7.82947E+00  2.02259E+00  4.55896E-01 -2.35433E+01  1.21792E+01 -8.25898E+00
  2.34283E+01  2.73017E+00 -1.57406E-01  3.89186E+00  2.66665E+01  2.20021E+01  1.92086E+01  1.08873E+01
  1.76223E+01 -8.35415E-01 -2.23078E+01 -2.25975E+00  2.67089E+00  1.72469E+01  3.89667E+00  2.37901E+01
 -1.18972E+01 -6.82652E+00 -1.59639E+01  1.66984E+01 -6.51490E+00 -5.25909E+00 -2.24049E+01 -1.22591E+01
 -1.87600E+01  9.08349E+00 -1.69092E+01 -1.98391E+01  5.76013E+00  1.21689E+01  1.24578E+01 -9.03533E+00
 -9.08141E+00 -7.00084E+00 -2.27489E+01 -8.94341E+00  2.12458E+00  8.58348E+00  1.23533E+01 -2.76344E+01
 -1.00569E+01 -6.82906E+00  1.06549E+00 -5.07071E+00  3.89535E+00 -1.39866E+01  1.38276E+01  1.34318E+01
  2.55054E+01  1.81592E+01  2.72690E+01  1.39809E+01  2.47908E+01  1.65354E+01  2.13426E+01  2.95538E+01
  1.72022E+01  2.59004E+01 -2.68402E+00 -9.70861E+00  1.18567E+01  1.17919E+01 -1.12045E+01  1.99972E+00
 -1.67232E+01 -1.44581E+00 -1.17836E+00  1.61255E+01 -4.40319E+00 -1.90850E+00 -6.36534E+00 -6.84320E-01
  9.32347E+00  1.18660E+01  9.05637E+00  6.37496E-01  1.01492E+01 -3.99729E+00 -1.99292E+01  1.79479E+01
 -2.15538E+01 -1.63577E+01 -1.80090E+00 -1.28709E+01 -1.93244E+01 -9.32971E+00  8.50207E+00 -1.69410E+01
  7.77440E+00  5.30710E+00  4.67306E+00 -1.41495E+01  1.02291E+01 -2.12512E+00 -7.79876E+00  2.95263E+00
  1.37675E+01  1.58307E+01  9.88869E+00 -6.88441E+00 -1.95174E+01 -1.05743E+01 -5.22690E+00  6.57231E-01
  9.42415E+00  7.86151E+00 -8.13956E+00  1.02690E+01 -4.39901E+00 -3.48122E-01  1.29297E+01 -8.21064E+00
  1.32147E+01 -7.53872E+00 -2.50205E+00 -2.30331E+01 -6.06868E+00 -2.20414E+01  9.98820E+00  1.06766E+01
  1.04121E+01 -8.16042E-01  1.87094E+00  1.93297E+01  3.05169E+01  1.06062E+00 -3.48292E+00  2.55358E+01
  2.60078E+01 -5.00728E+00 -1.15123E+01  4.29131E+00 -5.01480E+00 -3.16014E+00 -2.11287E+01  1.90320E+01
 -5.05644E+00 -7.90487E+00 -1.70300E+01 -7.81366E+00 -1.56806E+01  2.18234E+01 -1.51067E+01  4.44459E+00
  6.57642E+00  1.83466E+01 -6.66212E+00 -6.41622E+00 -1.38970E+01 -6.77899E-01 -1.80636E+01 -1.38431E+01
 -2.32180E+01  3.89477E+00 -1.24241E+01  1.70328E+01 -1.60594E+01 -1.25997E+01 -7.38990E+00  1.03830E+01
