 $NMID ID='dataset4', FMTDAT='(8E13.5)'
 TRAMP=1, VOLUME=1 $END
  2.58887E+02  1.04220E+02  4.71874E+02  2.09606E+02  3.24632E+02  3.70219E+02  1.35725E+02  4.25202E+02
 -4.70337E+01  3.93528E+02 -1.73640E+02  2.86838E+02 -2.29099E+02  1.46478E+02 -2.00427E+02  2.34481E+01
 -1.24123E+02 -5.44837E+01 -4.78181E+01 -7.18226E+01  2.03036E+01 -4.01533E+01  5.80559E+01  4.63643E+00
  5.00794E+01  4.77939E+01  2.07397E+01  7.66694E+01 -2.82024E+01  9.36968E+01 -5.70902E+01  8.41119E+01
 -7.89612E+01  5.72535E+01 -8.75840E+01  2.20837E+01 -8.96474E+01  2.26483E+00 -9.04553E+01 -2.23256E+01
 -7.17702E+01 -3.31694E+01 -5.83924E+01 -5.53050E+01 -3.23271E+01 -7.73144E+01 -7.78789E+00 -8.37711E+01
  2.07046E+01 -6.82519E+01  4.21762E+01 -3.66699E+01  5.39499E+01 -4.41802E+00  4.21903E+01  2.91515E+01
  1.59738E+01  4.24474E+01 -2.69562E+01  4.80297E+01 -5.70361E+01  1.89231E+01 -5.71928E+01 -1.07376E+01
 -5.94101E+01 -4.52174E+01 -3.18306E+01 -7.85671E+01 -2.12475E+00 -9.25662E+01  4.02098E+01 -8.59194E+01
  7.13438E+01 -6.48258E+01  8.43109E+01 -3.77357E+01  7.81602E+01 -1.04411E+01  7.46313E+01  2.51581E+01
  6.23320E+01  3.66443E+01  4.96493E+01  5.89894E+01  2.93435E+01  6.55237E+01  2.62671E+00  5.80807E+01
 -1.27496E+01  4.45763E+01 -1.88409E+01  2.80116E+01 -2.52394E+01  9.50358E+00 -1.76607E+01  3.25365E+00
 -1.13536E+01 -5.96823E+00  1.04463E+01 -9.92848E+00  2.76032E+01  1.61664E+01  2.32332E+01  2.65582E+01
 -7.89255E-01  5.31985E+01 -2.85097E+01  5.57971E+01 -5.40866E+01  4.70719E+01 -7.30324E+01  7.81571E+00
 -6.25290E+01 -1.62700E+01 -5.18585E+01 -4.74419E+01 -9.20072E+00 -6.78442E+01  3.70754E+01 -6.25924E+01
  6.41688E+01 -3.92358E+01  7.79148E+01 -6.83868E+00  6.35279E+01  4.17531E+01  4.39612E+01  5.90819E+01
  1.97698E+00  6.59976E+01 -3.02532E+01  6.91763E+01 -5.69151E+01  3.67352E+01 -6.38618E+01  1.59055E+01
 -5.94912E+01  1.11233E+00 -3.79466E+01 -2.45075E+01 -2.82551E+01 -2.77548E+01 -2.55563E+01 -3.44225E+01
 -6.95031E+00 -3.16855E+01  5.57611E+00 -3.39785E+01  8.28246E+00 -1.64220E+01  1.87031E+01 -7.96816E+00
  1.13314E+01  5.22674E+00  9.72835E+00  7.67300E+00  3.91127E+00  2.15888E+01 -1.18132E+01  1.35372E+01
 -3.48994E+01 -2.86701E-03 -3.82194E+01 -1.32961E+01 -3.28623E+01 -3.87149E+01 -1.39067E+01 -5.06792E+01
  1.74485E+01 -5.33333E+01  4.04500E+01 -4.13602E+01  5.71529E+01 -1.04687E+01  4.99358E+01  9.75580E+00
  3.03095E+01  3.94313E+01  1.30774E+01  4.69616E+01 -2.64544E+01  4.47069E+01 -4.26264E+01  2.24011E+01
 -3.80810E+01 -5.20563E+00 -3.88249E+01 -3.34693E+01 -1.33272E+01 -4.19110E+01  1.14955E+01 -4.32727E+01
  4.50438E+01 -3.71308E+01  5.30608E+01 -1.04119E+01  4.98788E+01  1.16328E+01  5.26408E+01  2.85902E+01
  3.02768E+01  5.23348E+01  8.08353E+00  6.34006E+01 -1.32747E+01  5.16153E+01 -3.09965E+01  4.71568E+01
 -4.93430E+01  4.22202E+01 -5.80806E+01  9.31836E+00 -5.48047E+01 -1.12517E+01 -4.29073E+01 -1.96565E+01
 -2.93167E+01 -4.27996E+01 -6.16692E+00 -4.54524E+01  5.51780E+00 -4.04387E+01  1.64008E+01 -2.56217E+01
  3.46720E+01 -1.43031E+01  2.78934E+01  7.39481E+00  1.34746E+01  2.69280E+01 -2.55486E+00  1.59343E+01
 -1.45796E+01  9.50790E+00 -2.41580E+01 -1.00293E+00 -1.39013E+01 -1.58657E+01 -1.07355E+01 -3.79241E+01
  1.26073E+01 -3.48032E+01  2.45823E+01 -1.53913E+01  3.55950E+01 -8.39107E+00  2.87340E+01  1.88675E+01
  1.95937E+01  2.57057E+01  5.34203E+00  4.34117E+01 -5.14882E+00  3.95490E+01 -2.89193E+01  2.41631E+01
 -3.05843E+01  7.63442E+00 -3.43427E+01 -1.02540E+01 -4.08478E+01 -1.53889E+01 -2.38339E+01 -3.26087E+01
 -1.22038E+01 -4.32141E+01  2.69814E+00 -4.89166E+01  2.11535E+01 -4.06616E+01  3.12944E+01 -2.70443E+01
  3.72929E+01 -2.12445E+01  4.77557E+01  5.64032E+00  4.10169E+01  1.91219E+01  2.72799E+01  2.83022E+01
  1.84727E+01  3.17656E+01 -1.90278E+00  3.65715E+01 -1.34896E+01  2.56023E+01 -1.58677E+01  1.12026E+01
 -1.03760E+01 -2.80405E+00 -7.08193E+00  1.89960E+00 -3.41878E+00  2.01553E+00  2.92662E+00  2.97904E+00
  7.76052E+00  1.19990E+01 -3.74226E+00  2.64250E+01 -9.25701E+00  1.96187E+01 -1.74002E+01  1.71451E+01
 -4.11883E+01  1.48611E+01 -3.71284E+01 -4.25189E+00 -2.84521E+01 -1.47623E+01 -2.10586E+01 -3.90420E+01
 -5.86196E+00 -4.48674E+01  6.75640E+00 -3.55826E+01  2.38953E+01 -3.61028E+01  2.98922E+01 -9.68512E+00
  3.30348E+01 -4.31425E+00  3.56228E+01  2.64408E+01  1.08512E+01  3.87832E+01 -5.47599E+00  4.03304E+01
 -2.00069E+01  2.76859E+01 -2.80901E+01  1.86116E+01 -4.19811E+01  1.74066E+00 -4.15231E+01 -1.17565E+01
 -4.36454E+01 -3.30621E+01 -2.80330E+01 -4.87147E+01 -1.03786E+01 -5.52094E+01  1.92881E+01 -5.10038E+01
  2.51369E+01 -3.59896E+01  2.98606E+01 -2.55594E+01  4.01633E+01 -1.41957E+01  2.96381E+01 -2.76222E+00
  2.02237E+01  9.80532E+00  9.89848E+00  5.02952E+00  7.01835E+00 -3.61133E+00  1.66222E+01  3.73787E+00
  2.37679E+01 -6.40064E+00  3.16481E+01 -4.03997E+00  2.41746E+01  2.05241E+00  3.07985E+01  1.17025E+01
  3.19292E+01  2.97917E+01  1.46978E+01  4.01117E+01  3.51805E+00  3.86628E+01 -1.43084E+01  5.08564E+01
 -1.81146E+01  3.97411E+01 -3.23611E+01  3.51263E+01 -3.96664E+01  1.69148E+01 -3.79288E+01 -7.08419E+00
 -3.89188E+01 -2.00388E+01 -2.24509E+01 -2.10747E+01 -1.15511E+01 -2.53640E+01  7.92796E+00 -2.15836E+01
  1.81778E+01 -2.74059E+01  1.77424E+01 -1.54233E+01  2.28930E+01  1.04574E+00  7.42403E+00  1.43410E+01
 -1.80668E+00  1.55599E+01 -7.76477E+00  1.25474E+01 -1.35219E+01  3.44000E+00 -1.74758E+01 -6.92922E+00
 -1.22223E+01 -7.08317E+00 -1.01447E+01 -9.50031E+00 -3.52146E+00 -1.92061E+01  1.58987E+01 -1.37736E+01
  1.39384E+01 -3.30421E+00  1.46230E+01  3.79015E+00  1.22306E+01  8.34166E+00  4.20687E+00  1.30089E+01
 -1.61680E+01  1.86844E+01 -1.65734E+01  1.24185E+01 -1.42465E+01 -7.81325E+00 -1.81047E+01 -1.63794E+01
 -1.03451E+01 -2.77879E+01  2.91654E+00 -3.69376E+01  8.79993E+00 -3.72178E+01  2.76279E+01 -2.74676E+01
  4.06578E+01 -1.55102E+01  4.35170E+01 -2.13405E+00  3.79307E+01  1.11488E+01  2.66245E+01  2.53157E+01
  2.54076E+01  2.70191E+01  4.45257E+00  3.42940E+01 -2.73065E+00  3.74531E+01 -2.47929E+01  2.57209E+01
 -2.16485E+01  1.33859E+01 -2.99602E+01  5.67873E-01 -2.39898E+01 -1.86115E+00 -1.00500E+01 -1.09345E+01
  2.91863E+00 -2.24301E+01  8.23839E+00 -1.76227E+01  1.83106E+01  7.80619E-01  8.09061E+00  8.81673E+00
  1.62266E+01  9.62536E+00  2.23934E+00  1.25776E+01 -7.19543E+00  1.77732E+01 -4.46302E+00  1.10973E+01
 -9.99025E+00  6.72732E+00 -8.05292E+00 -1.99797E+00 -9.53237E+00 -2.99800E+00  2.72619E-01  4.45883E+00
  7.63480E-01  8.99244E+00 -1.01625E+00  4.26746E+00  2.49086E+00  4.69491E+00 -1.89095E+00  2.15566E+01
 -1.18506E+01  2.33336E+01 -2.61062E+01  9.57608E+00 -2.56031E+01  2.04745E+00 -2.73595E+01 -7.13738E-01
 -3.66262E+01 -1.22698E+01 -1.99439E+01 -2.60776E+01 -1.07627E+01 -3.11407E+01 -6.43363E+00 -3.50333E+01
  6.83841E+00 -2.97536E+01  2.73128E+01 -3.01924E+01  1.90249E+01 -1.37034E+01  2.90996E+01 -7.49170E+00
  1.31991E+01  1.13131E+01  1.33454E+01  1.86991E+01 -1.52505E+00  1.18803E+01 -2.81304E+00  4.81526E+00
 -1.45082E+01  2.42561E+00 -6.62945E+00 -1.21146E+01  6.69822E-01 -1.20806E+01  5.64318E+00 -7.17879E+00
  2.08155E+01 -4.50431E+00  1.20900E+01 -9.56421E+00  1.90986E+01 -2.67920E+00  1.67068E+01  7.73862E+00
  3.71159E+00  1.88628E+01  5.63328E+00  2.66628E+01 -1.09336E+01  2.22461E+01 -1.11152E+01  1.25052E+01
 -1.63971E+01  7.66894E+00 -1.14566E+01 -8.96701E+00 -6.79907E+00 -9.06812E+00 -9.90624E+00 -1.29055E+01
  4.75013E+00 -5.51148E+00  1.77076E+01 -3.55482E+00  1.05682E+01  6.75302E+00  1.70361E+01  1.29122E+01
  1.10940E+01  1.89293E+01 -5.88207E+00  2.82908E+01 -7.24497E+00  2.01235E+01 -1.66012E+01  1.91666E+01
 -2.08026E+01  2.92242E+00 -3.77042E+01  1.35558E-01 -3.08041E+01 -1.77786E+01 -1.58413E+01 -2.85730E+01
 -2.47941E+00 -2.62081E+01  4.41468E+00 -2.45079E+01  1.37262E+01 -1.67692E+01  2.42717E+01 -7.91699E+00
  2.40668E+01 -7.79802E+00  1.51786E+01  1.25749E+01  1.20254E+01  1.36269E+01 -6.77211E-01  1.58796E+01
  3.28811E+00  2.24991E+01 -1.30847E+01  6.16513E+00 -7.21511E+00  1.05581E+01 -7.37357E+00  3.96449E+00
 -1.53560E+01 -5.07240E+00 -1.45788E+01 -9.67733E+00 -1.64460E+00  1.82869E+00 -4.91910E+00  1.20729E+00
  3.84971E+00  5.93966E+00  3.33636E+00 -3.19237E+00 -1.74143E+00  1.07981E+01 -1.35082E+01  9.23000E+00
 -1.69088E+01  1.68425E+00 -9.28622E+00 -1.03962E+01 -5.78689E+00 -2.11846E+01 -7.28776E+00 -1.97716E+01
  8.11264E+00 -2.53771E+01  1.88860E+01 -2.41366E+01  1.80038E+01 -1.82025E+01  2.42385E+01 -1.33925E+01
  3.39283E+01 -1.27495E+00  1.61208E+01  1.48875E+01  1.76610E+01  2.77668E+01  3.93708E-01  2.61416E+01
 -1.82608E+00  2.54339E+01 -1.51008E+01  1.17913E+01 -5.24942E+00  1.55499E+01 -1.19236E+01 -6.09063E-01
 -1.24641E+01  4.55855E+00 -1.04034E+01 -3.61812E+00 -8.67486E+00  6.10450E+00 -7.26575E-01  6.86494E+00
 -4.56221E+00 -3.97108E+00  3.92665E+00  3.43783E+00 -8.01028E+00  1.04828E+01 -6.13149E+00 -6.15254E-01
 -1.53927E+01 -1.42896E+00 -6.54243E+00  1.83152E+00 -6.49587E+00 -1.22312E+01 -7.00259E+00 -5.72985E+00
 -1.09399E+01 -9.51718E+00  9.46749E-01 -1.79539E+01  2.99209E+00 -1.60183E+01  4.15901E+00 -1.47903E+00
  7.80127E+00 -3.41131E+00  6.66404E+00  3.09910E+00 -3.18734E+00  5.89307E+00 -1.16515E+01  1.46564E+01
 -1.94329E+01 -5.21568E-01 -1.55011E+01 -3.90400E+00 -2.28629E+01 -2.03417E+01 -1.19173E+01 -2.93765E+01
 -1.08877E+01 -2.08344E+01  9.80076E-01 -2.63715E+01  1.64441E+01 -2.49334E+01  2.06753E+01 -1.44806E+01
  3.67547E+01 -8.60066E-01  3.66022E+01  6.63414E+00  2.79880E+01  1.73631E+01  1.64713E+01  2.02364E+01
  1.53542E+01  2.75738E+01  4.19313E+00  2.06561E+01 -9.25081E-01  1.62853E+01 -1.30051E+01  1.00739E+01
  6.90709E-01  1.31970E+01 -4.78471E+00  4.88979E+00 -6.14088E+00  7.81329E-01  3.99524E+00  7.18552E+00
  4.67632E-01  1.41518E+01 -3.66406E+00  1.21482E+01 -1.23072E+01  5.03697E+00 -1.34402E+01  1.43655E+01
 -2.34562E+01 -5.72286E-01 -1.81502E+01 -8.08356E-01 -1.89643E+01 -6.99671E+00 -2.20921E+01 -1.69429E+01
