 $NMID ID='dataset19', FMTDAT='(8E13.5)'
 TRAMP=1, VOLUME=1 $END
  2.80110E+02  1.14616E+02  5.14888E+02  2.29673E+02  3.67251E+02  3.90586E+02  1.63891E+02  4.55613E+02
 -1.95811E+01  4.21881E+02 -1.63304E+02  3.03956E+02 -2.13772E+02  1.64519E+02 -1.87869E+02  5.24936E+01
 -1.25578E+02 -2.36025E+01 -6.30312E+01 -5.58627E+01  1.23298E+01 -2.48788E+01  3.22255E+01  8.32387E+00
  2.84212E+01  5.16979E+01 -8.85267E+00  9.17120E+01 -3.89101E+01  8.62714E+01 -7.82339E+01  7.78339E+01
 -1.00398E+02  5.01711E+01 -9.86814E+01  8.89791E+00 -9.57151E+01 -3.90414E+00 -9.42078E+01 -2.62363E+01
 -6.68792E+01 -4.52848E+01 -6.55647E+01 -6.44322E+01 -2.30505E+01 -7.29708E+01  4.22898E+00 -7.82878E+01
  2.42244E+01 -7.83364E+01  4.85994E+01 -5.36824E+01  7.18709E+01 -6.11991E+00  5.15550E+01  3.03636E+01
  1.26953E+01  4.41507E+01 -1.41320E+01  5.60312E+01 -3.90688E+01  3.76622E+01 -5.77547E+01 -1.00275E+00
 -5.43484E+01 -4.23527E+01 -4.21024E+01 -5.95730E+01 -2.14611E-01 -9.18750E+01  2.27808E+01 -7.60189E+01
  6.64412E+01 -5.67733E+01  7.88354E+01 -4.09047E+01  7.45228E+01 -1.81549E+01  7.73684E+01  2.22842E+01
  6.74437E+01  2.83253E+01  4.04266E+01  5.53818E+01  3.59557E+01  5.58772E+01  5.40406E+00  4.54641E+01
 -7.55366E+00  3.86394E+01 -2.64956E+01  3.35273E+01 -2.78129E+01  2.06435E+01 -1.33019E+01  3.98642E+00
  3.00223E+00 -1.66494E+01  1.01452E+01  9.83862E-01  2.17110E+01  1.06274E+01  7.89425E+00  1.72215E+01
  9.88148E+00  4.51632E+01 -2.53421E+01  4.22982E+01 -4.03361E+01  3.06476E+01 -7.39151E+01  1.35247E+01
 -7.02390E+01 -3.31096E+01 -3.62946E+01 -6.32297E+01 -5.79103E+00 -8.14304E+01  3.48337E+01 -6.51038E+01
  5.13029E+01 -5.07347E+01  7.27604E+01  2.15643E+00  7.73928E+01  1.93088E+01  5.15530E+01  5.28073E+01
  1.52331E+01  7.43620E+01 -5.03490E+00  6.18636E+01 -3.72203E+01  5.15531E+01 -4.15393E+01  1.56903E+01
 -3.22522E+01  1.24966E+01 -3.05866E+01 -7.95763E+00 -2.30755E+01 -4.99948E+00 -1.92468E+01 -1.04675E+01
 -9.80823E+00 -2.15577E+01 -1.35133E+01 -7.16636E+00 -7.41706E+00 -1.46886E+01  1.31831E+01  2.21372E-01
  6.60127E-01  1.07862E+01 -7.81545E+00  2.21524E+01 -1.39971E+01  5.54288E+00 -1.93882E+01  6.41709E+00
 -3.14199E+01 -9.24753E-01 -4.25363E+01 -1.88279E+01 -2.66955E+01 -4.12895E+01 -1.98776E+01 -5.70069E+01
  2.33869E+01 -5.22892E+01  3.85864E+01 -3.92892E+01  5.92253E+01 -2.63150E+01  5.35671E+01 -5.82299E+00
  4.71179E+01  3.31871E+01  2.43744E+01  4.18430E+01 -1.56883E+01  3.95705E+01 -3.39492E+01  1.61525E+01
 -2.29909E+01  8.22800E+00 -3.30395E+01 -2.82102E+01 -6.73665E+00 -2.34196E+01  2.22234E+01 -3.89209E+01
  4.28620E+01 -1.13672E+01  4.38941E+01 -1.32928E+01  3.61345E+01  2.06390E+01  4.13389E+01  4.55648E+01
  1.97082E+01  5.78487E+01 -6.88136E+00  5.43801E+01 -2.28211E+01  4.19748E+01 -4.10000E+01  4.65407E+01
 -4.03427E+01  2.21798E+01 -5.81264E+01  8.06559E+00 -5.07866E+01 -2.07504E+01 -3.67775E+01 -1.81671E+01
 -3.61005E+01 -4.31569E+01 -1.72542E+01 -5.10529E+01  2.28160E+00 -5.23728E+01  3.05965E+01 -2.72120E+01
  3.03359E+01 -3.00284E+00  2.96281E+01  1.94476E+00  2.19619E+01  2.49408E+01  1.03199E+01  2.60989E+01
 -1.74375E+01  1.49221E+01 -8.90348E+00 -8.11339E-01 -6.69668E+00 -1.49684E+01  4.57002E+00 -2.48912E+01
  1.30162E+01 -3.11566E+01  2.97514E+01 -7.54952E+00  2.12581E+01  6.59326E-01  3.40271E+01  1.12734E+01
  1.77463E+01  3.83387E+01 -7.98500E+00  2.34985E+01 -2.14587E+01  2.44831E+01 -1.61832E+01  2.66951E+01
 -2.86157E+01  1.48622E+01 -2.83363E+01 -1.10937E+00 -3.16716E+01 -2.53625E+01 -1.13955E+01 -3.13719E+01
 -1.10155E+01 -3.48455E+01  6.02714E+00 -3.98860E+01  1.07059E+01 -3.35434E+01  2.69572E+01 -1.70105E+01
  2.48665E+01 -1.47656E+01  3.84093E+01  3.44023E+00  4.16459E+01  1.71958E+01  3.42618E+01  3.77528E+01
  1.77599E+01  3.27898E+01 -1.06717E+01  4.41917E+01 -5.06115E+00  2.69439E+01 -1.92844E+01  2.46717E+01
 -3.16926E+01  2.92081E+00 -1.47050E+01 -4.08757E+00 -1.82155E+01 -1.56552E+01 -1.06306E+01 -5.48474E-01
 -1.87186E-01  4.43533E+00 -6.01736E+00  3.58430E+00 -8.27134E+00  1.12072E+01 -2.45330E+01  1.83039E+01
 -2.92991E+01 -8.76743E+00 -2.68667E+01 -5.45156E+00 -3.13026E+01 -3.26538E+01 -3.61529E+00 -3.07134E+01
 -7.53094E+00 -2.36591E+01  2.45816E+01 -3.17873E+01  3.65582E+01 -2.73595E+01  3.22567E+01 -3.29776E+00
  3.74912E+01  6.87469E+00  3.32654E+01  2.74807E+01  1.87488E+01  3.22768E+01 -7.49477E+00  3.60534E+01
 -7.52371E+00  3.17657E+01 -3.39680E+01  1.35235E+01 -4.71801E+01  1.17940E+01 -4.37427E+01 -1.74876E+01
 -4.03640E+01 -3.35062E+01 -2.52911E+01 -2.94776E+01 -1.67965E+01 -3.46209E+01 -6.77560E-01 -2.91687E+01
  9.57572E+00 -3.34577E+01  1.53358E+01 -2.44908E+01  3.25156E+01 -2.07379E+01  3.39578E+01 -8.15797E+00
  2.84762E+01  8.93671E+00  8.59182E+00  6.15490E+00  1.13657E+01 -8.95943E+00  2.10382E+01 -8.22935E+00
  1.34131E+01 -6.38367E+00  3.01748E+01  1.39367E+01  3.11484E+01  1.77727E+01  2.73376E+01  2.84403E+01
  9.54540E+00  2.34478E+01  6.19769E-02  3.94789E+01  1.06236E+01  2.98268E+01 -1.90080E+01  3.41969E+01
 -1.61482E+01  2.10939E+01 -3.63499E+01  2.01302E+01 -3.12515E+01  2.68376E+00 -2.81685E+01 -7.43498E+00
 -3.37612E+01 -9.71687E+00 -2.41198E+01 -2.90227E+01 -2.17415E+01 -2.59241E+01 -7.72069E+00 -3.44433E+01
 -2.79117E-01 -1.89388E+01  1.59535E+01 -5.20286E+00  1.28570E+01 -1.17544E+01  1.17143E+01  3.51816E+00
  1.67604E-01  9.18377E+00  3.75396E+00 -1.45516E+00 -1.97417E+00  8.44023E+00 -8.02707E+00  9.81310E+00
 -9.94850E+00 -3.87011E+00 -1.00739E+01 -1.75278E+01  6.67460E-01 -1.12764E+01  1.45946E+00 -1.34949E+01
  6.19041E+00  2.68798E+00  5.17628E+00  1.01806E-01  8.16809E+00  5.56726E+00 -6.15277E+00  1.01232E+01
 -1.06242E+01  4.97752E+00 -2.14744E+01  1.27828E+01 -1.04208E+01 -9.13370E+00 -2.16103E+01 -2.13722E+01
 -7.51613E+00 -8.26295E+00 -2.92230E+00 -1.81708E+01  5.33076E+00 -2.61900E+01  2.10688E+01 -1.91672E+01
  2.81924E+01 -1.97519E+01  2.99521E+01  2.35168E+00  3.13100E+01 -3.59322E+00  2.67237E+01  2.16205E+01
  2.45184E+01  2.50757E+01  7.48960E+00  2.17769E+01 -7.33832E-03  2.49697E+01 -1.12679E+01  1.59856E+01
 -2.34315E+01  2.14268E+01 -4.19076E+00  1.31303E+01 -2.76040E+00  3.66671E+00  2.08092E+00 -1.61335E+01
 -9.43263E+00  3.22580E+00  4.77752E+00  6.00437E+00  9.64416E+00  9.54274E+00 -3.75767E+00 -3.57629E+00
 -2.39655E+00  1.05018E+01  1.47598E+00  1.46726E+01  1.98014E+00  1.14021E+01 -1.13071E+01  1.38127E+01
 -1.79039E+01  5.27183E+00  1.80033E+00  5.48039E+00  1.56105E+00 -1.24520E+01 -1.22334E+01 -2.20084E+00
 -2.99121E+00 -7.57401E+00 -8.11824E+00  1.15290E-01  7.24901E+00 -4.42406E+00  1.09760E+00  1.48699E+01
  1.56657E+00  1.49853E+00 -1.31201E+01  2.03218E+01 -1.70299E+01  7.58312E+00 -1.73390E+01  9.53814E+00
 -1.90412E+01  3.37311E+00 -2.16051E+01 -3.37843E+00 -2.35625E+00 -2.89465E+01  6.40900E+00 -2.09125E+01
 -2.35190E+00 -2.95033E+01  9.50008E+00 -2.29680E+01  2.15003E+01 -1.51045E+01  1.32509E+01  1.48658E+00
  7.71598E+00  2.72478E+00 -1.51953E-01 -6.49598E-01 -7.03416E+00  1.15617E+01 -3.12686E+00 -7.14522E+00
 -8.58875E+00  4.19675E+00  2.55096E+00 -1.41208E+01 -5.48049E+00 -1.39207E+01  9.05191E+00 -1.40907E+01
  1.35063E+01 -8.09626E+00  1.54587E+01 -8.93886E+00  1.77027E+01  1.08678E+01  1.32424E+01  1.19245E+01
  1.05260E+01  1.15094E+01 -6.47178E+00  1.18874E+01 -9.30369E+00  1.10807E+01 -6.97673E+00  1.92195E+01
 -1.04431E+01  1.11120E+01 -1.79165E+01  1.37587E+00 -1.50345E+01  6.89247E+00  4.58203E+00  2.16347E+00
  2.95905E+00  2.85304E+00 -6.30067E+00  1.25304E+00  1.21705E+00 -8.00327E-01  1.12941E+01  9.84484E+00
 -1.87647E+00  9.26114E+00  2.49067E+00  1.62156E+01 -2.69688E+00  1.57766E+01 -1.24475E+01  7.66606E+00
 -1.55869E+01 -8.57157E+00 -1.37007E+01 -1.21171E+01 -1.01974E+01 -1.06112E+00 -6.48381E+00 -2.16826E+01
  6.52296E+00 -9.74104E+00  3.79328E+00 -1.66788E+01  1.95996E+01 -1.42252E+01  2.57623E+01 -1.46250E+01
  1.97063E+01  1.24129E+01  9.22485E+00  1.48449E+01  7.89598E+00  8.66084E+00  6.88686E+00  1.19537E+01
  6.87400E-01  1.31930E+01 -1.61752E+01  8.92551E+00 -1.83400E+01  1.57906E+01 -1.14079E+01 -3.04554E+00
 -9.00204E+00 -2.30263E+00 -1.49046E+01  5.00504E+00 -1.34415E+01  4.41649E+00 -1.94458E+00  1.33385E+00
 -7.19221E+00 -2.33842E+00  2.75428E+00 -5.28367E+00 -9.75944E+00 -8.75040E+00 -9.28624E+00 -4.88500E+00
 -9.83611E+00  5.42276E+00 -1.19346E+00  1.08399E+00 -1.20269E+01 -1.53210E+01  4.97542E+00 -2.09139E+01
 -5.20729E+00 -1.32210E+01  1.41686E+01 -1.71583E+01  2.32131E+01 -6.93673E+00  1.96827E+01  3.35955E+00
  2.70330E+01  6.13490E+00  1.23684E+01  1.47615E+01  9.86777E+00  5.40779E+00  1.38468E+01  1.20058E+01
 -7.37031E+00  1.96619E+01 -1.51590E+01  1.02416E+01 -6.17664E+00  1.24110E+01 -1.39878E+01  1.34089E+01
 -1.94342E+00 -8.47744E+00 -8.79575E+00  3.25681E+00  2.62917E+00 -3.24204E+00  8.84202E+00 -7.94744E+00
  1.36845E+00  7.42834E+00 -7.51307E+00  1.19297E+01  5.98705E+00 -4.68432E+00  1.95793E+00 -1.38833E+00
 -5.62031E+00 -6.29717E+00 -5.34901E+00  1.06570E+01 -1.24485E-02  2.89153E-01  3.45226E+00  7.64306E+00
 -2.68131E+00 -4.01501E+00 -1.13173E+01 -1.20571E+01  4.42652E+00 -1.26351E+01 -5.59594E+00 -9.78136E+00
  5.53314E+00  8.52709E+00  1.28730E-01  1.12597E+01  1.10700E+00 -1.61877E+00 -2.13786E+00  1.17518E+01
 -1.42812E+01  1.03940E+01 -1.62195E+01 -1.11340E+00 -7.07178E+00 -2.03741E+01 -7.90608E+00 -2.14085E+01
 -1.06285E+01 -2.29567E+01  1.55327E+01 -8.20823E+00  8.28948E+00 -2.12425E+01  1.68775E+01 -1.83742E+01
  2.65721E+01 -1.81103E+00  8.33314E+00 -3.82074E-01  6.96546E+00  1.33535E+01  2.27498E+00  1.18133E+01
 -2.10162E-01  3.12699E+00  2.80085E+00  1.34378E+01 -2.72123E+00  7.47622E+00 -8.38839E+00  1.52937E+01
 -4.80540E+00 -1.49463E+00 -4.94473E+00 -1.67707E+00 -1.49122E+01 -2.81129E+00 -2.22833E+00  1.02154E+01
 -7.22698E+00  1.17872E+01 -1.20146E+01  1.06517E+01 -1.45254E+01  1.66219E+01 -2.03372E+01  5.83247E+00
 -2.01892E+01  5.88887E+00 -1.15142E+01  2.62786E+00 -7.96137E+00  1.17773E+00 -6.60476E+00 -2.36971E+00
