 $NMID ID='dataset27', FMTDAT='(8E13.5)'
 TRAMP=1, VOLUME=1 $END
  4.89434E+04  9.87530E+01  4.89046E+04  1.79875E+02  4.84912E+04  2.83332E+02  4.80764E+04  2.93564E+02
  4.77413E+04  2.41191E+02  4.74321E+04  1.67798E+02  4.71427E+04  3.67745E+01  4.70564E+04 -3.22558E+01
  4.69298E+04 -1.06929E+02  4.67608E+04 -1.28965E+02  4.66091E+04 -1.73180E+01  4.64010E+04  6.35342E+01
  4.60954E+04  8.49721E+01  4.58051E+04  1.40239E+02  4.55475E+04  9.66012E+01  4.53265E+04  3.27467E+01
  4.51369E+04 -5.19994E+01  4.49570E+04 -8.00082E+01  4.47787E+04 -4.73553E+01  4.46076E+04 -2.23532E+00
  4.43967E+04 -2.43295E+01  4.41354E+04  2.11710E+01  4.39001E+04  3.49016E+01  4.36897E+04 -3.96737E+01
  4.34179E+04 -4.90804E+01  4.32642E+04 -7.35205E+01  4.31356E+04 -7.22961E+01  4.30004E+04 -9.59608E+01
  4.28119E+04 -3.52201E+01  4.25861E+04  9.13439E+00  4.23370E+04  6.92287E+01  4.20928E+04  1.35280E+02
  4.18622E+04  1.10996E+02  4.16586E+04  4.29944E+00  4.14474E+04 -2.22500E+01  4.12522E+04 -3.02048E+01
  4.11316E+04 -1.35983E+02  4.09535E+04 -7.43310E+01  4.07780E+04 -1.16313E+02  4.06783E+04 -3.03557E+01
  4.04926E+04 -2.54283E+01  4.02616E+04  5.90291E+01  4.00256E+04  8.33720E+01  3.98343E+04  4.89259E+01
  3.95769E+04  2.40505E+01  3.94278E+04 -4.21799E+00  3.92364E+04 -5.13302E+01  3.90678E+04 -4.54356E+01
  3.89041E+04  3.66812E+00  3.86965E+04  6.80916E+00  3.85718E+04  6.74217E+01  3.83896E+04  4.67203E+01
  3.80940E+04  7.79143E+01  3.79405E+04  5.16327E+01  3.76829E+04  1.14662E+01  3.75731E+04 -5.54792E+01
  3.74135E+04 -3.90249E+01  3.72426E+04 -5.70858E+01  3.71051E+04 -6.42519E+01  3.69996E+04 -6.00236E+01
  3.68288E+04  1.18000E+01  3.65997E+04  5.71033E+01  3.64172E+04  7.89940E+01  3.62079E+04  4.20632E+01
  3.59927E+04  1.27044E+00  3.58660E+04  2.54725E+01  3.57374E+04 -2.06489E+01  3.55272E+04 -6.79116E+01
  3.53811E+04 -2.76023E+01  3.52510E+04  3.58885E+01  3.51086E+04  5.00926E+01  3.48763E+04  3.21517E+01
  3.47080E+04  2.46375E+01  3.45279E+04  4.82404E+01  3.43891E+04  9.26393E+00  3.41772E+04 -1.43863E+01
  3.40527E+04 -1.24866E+01  3.39499E+04 -8.92716E+00  3.37637E+04  8.46849E+00  3.35709E+04  1.94482E+01
  3.34423E+04  3.99290E+01  3.32465E+04  4.61521E+01  3.30884E+04 -1.11135E+01  3.28778E+04 -5.80070E+01
  3.27366E+04 -4.86217E+01  3.26468E+04 -8.78808E+01  3.25705E+04 -3.87180E+01  3.23796E+04 -3.02926E+01
  3.22870E+04  3.13350E+01  3.21312E+04  4.67351E+01  3.19324E+04  7.84936E+01  3.17736E+04  5.52788E+01
  3.15369E+04  4.51914E+01  3.14356E+04 -8.75157E+00  3.12581E+04  2.81253E+01  3.11641E+04 -2.96000E+01
  3.10184E+04 -6.84202E+00  3.08467E+04  2.70760E+01  3.07161E+04 -3.49350E+01  3.06141E+04 -1.71145E+00
  3.04077E+04  1.57694E+01  3.02966E+04  6.70762E+01  3.01035E+04  4.05684E+01  3.00118E+04  1.23514E+01
  2.98009E+04 -2.00276E+01  2.96596E+04  1.13235E+01  2.95687E+04 -7.23964E+00  2.94663E+04 -2.07257E+01
  2.93417E+04  1.33793E+01  2.91242E+04 -2.58238E+01  2.89784E+04 -2.74917E+00  2.88982E+04  2.92096E+01
  2.87767E+04 -4.53166E+01  2.86172E+04  8.75134E+00  2.84889E+04 -2.52258E+01  2.83774E+04  1.73227E+01
  2.82611E+04 -2.85188E-01  2.81053E+04  1.58014E+01  2.79970E+04  3.87888E+01  2.78450E+04  1.75338E+01
  2.76745E+04  3.88026E+00  2.75465E+04  4.80415E+00  2.73866E+04  2.35483E+01  2.72632E+04  1.49466E+01
  2.71169E+04 -7.35245E+00  2.70205E+04  7.87940E+00  2.69345E+04 -5.25899E+00  2.68159E+04 -1.94970E+01
  2.66956E+04 -2.93917E+01  2.65423E+04  2.86806E+01  2.64365E+04 -1.62157E+01  2.63190E+04 -4.35468E+01
  2.61697E+04  2.47243E+01  2.60742E+04 -1.80227E+01  2.58999E+04 -2.54709E+01  2.58301E+04 -4.35297E+01
  2.56924E+04 -5.12964E+01  2.55556E+04  6.00535E+00  2.54959E+04  7.95381E+00  2.53320E+04  6.00275E+01
  2.51937E+04  3.06999E+01  2.50595E+04  3.87108E+00  2.49606E+04  1.12402E+01  2.48332E+04  4.91670E+01
  2.47186E+04 -3.36171E+00  2.45626E+04 -3.00044E+01  2.44924E+04  1.10922E+01  2.43429E+04 -8.29765E+00
  2.42758E+04  2.57282E+01  2.41380E+04  2.23929E+01  2.40479E+04  9.47805E+00  2.39133E+04  2.68060E+01
  2.38285E+04 -3.01599E+01  2.37021E+04 -1.29928E+01  2.35796E+04 -4.32216E+00  2.35255E+04  1.17913E+01
  2.34185E+04  4.90892E+00  2.32351E+04  9.22214E-02  2.31992E+04 -3.04028E+01  2.30626E+04  1.98903E+01
  2.29486E+04  2.77391E+01  2.28137E+04  3.32966E+01  2.26891E+04 -3.34081E+01  2.26343E+04  1.08627E+00
  2.24678E+04  2.43247E+01  2.23842E+04 -3.24921E+01  2.23242E+04 -2.61441E+01  2.22021E+04  3.50345E+01
  2.20930E+04 -1.22202E+01  2.19742E+04 -3.01858E+01  2.18571E+04 -4.49875E+01  2.17900E+04  2.15697E+01
  2.16441E+04 -4.04193E+01  2.16037E+04 -6.49690E+01  2.14615E+04 -7.09046E+00  2.13959E+04  1.72115E+01
  2.12865E+04 -1.71017E+01  2.11618E+04  1.03868E+00  2.10540E+04  2.29454E+01  2.10167E+04  4.31718E+01
  2.08838E+04 -1.23135E+01  2.08084E+04 -1.54356E+01  2.06798E+04  1.15572E+01  2.06202E+04 -2.09558E+01
  2.04928E+04  4.14390E+01  2.04160E+04  3.04932E+01  2.02972E+04  2.60537E+01  2.02033E+04  4.92264E+01
  2.00552E+04  4.11961E+01  2.00314E+04  1.62959E+01  1.99339E+04 -2.11529E+01  1.97928E+04  2.75877E-01
  1.97049E+04  6.16723E+00  1.96319E+04 -3.03739E+01  1.95494E+04 -5.15428E+00  1.94521E+04 -6.12052E+01
  1.93530E+04 -6.82741E+00  1.92454E+04 -4.48694E+01  1.91845E+04 -3.55634E+01  1.90849E+04  2.67494E+01
  1.90056E+04 -1.43996E+01  1.88957E+04  3.55668E+01  1.88541E+04 -1.23512E+01  1.86906E+04  2.41440E+01
  1.86740E+04 -9.78435E+00  1.85892E+04  3.71161E+01  1.85032E+04  2.56578E+01  1.83582E+04  1.19899E+01
  1.83003E+04  3.44234E+01  1.82161E+04 -2.06240E+01  1.81283E+04  3.73712E+00  1.80065E+04  2.41554E+01
  1.79349E+04 -3.08273E+01  1.78180E+04 -1.62418E+01  1.77854E+04 -2.96044E+01  1.76856E+04 -2.43834E+01
  1.75925E+04 -5.61846E+00  1.75444E+04 -5.66099E+01  1.74730E+04 -5.94788E+01  1.73990E+04  2.01755E+01
  1.73104E+04  2.63669E+01  1.72572E+04 -3.92062E+01  1.71256E+04  1.84248E+01  1.70276E+04  4.17701E+01
  1.69987E+04 -1.81745E+00  1.68717E+04 -2.62202E+01  1.68289E+04 -1.95492E+01  1.67524E+04 -1.13081E+01
  1.66193E+04 -5.39360E+00  1.65991E+04 -1.17988E+01  1.64934E+04  5.29011E+01  1.63761E+04  4.45817E+01
  1.63115E+04  9.99982E+00  1.62636E+04  4.44800E+01  1.61339E+04  1.26391E+01  1.60612E+04 -8.61117E+00
  1.59932E+04 -2.36187E+01  1.59854E+04 -4.35197E+01  1.58411E+04 -1.15831E+01  1.58364E+04 -1.89258E+01
  1.56926E+04  8.42055E+00  1.56233E+04  2.11356E+01  1.55734E+04  3.45819E+01  1.55108E+04 -2.63587E+01
  1.53948E+04 -9.52681E-01  1.53674E+04  5.50600E+00  1.53122E+04 -4.23514E+01  1.51995E+04 -4.86796E+01
  1.51525E+04  3.54760E+01  1.50618E+04  2.08874E+01  1.50004E+04  3.72456E+01  1.48928E+04 -8.47936E+00
  1.48812E+04 -1.33725E+01  1.48070E+04  2.81168E+01  1.46745E+04 -1.77060E+01  1.46424E+04  2.86218E+01
  1.45512E+04  1.38485E+01  1.45018E+04  1.94294E+01  1.44972E+04 -4.51550E+01  1.44134E+04  3.03567E+01
  1.42939E+04 -1.30368E+01  1.42768E+04  2.27067E+00  1.41975E+04 -2.61032E+01  1.40659E+04 -1.79854E+01
  1.40122E+04  2.18364E+01  1.40041E+04 -5.48638E+01  1.39061E+04  2.62558E+01  1.38992E+04  1.52788E+01
  1.38077E+04 -1.90812E+01  1.37778E+04 -2.47882E+01  1.36442E+04  2.20290E+01  1.36252E+04  1.26322E+01
  1.35180E+04  1.57209E+00  1.34294E+04  4.43629E+01  1.34374E+04 -6.79371E+00  1.33219E+04  2.94889E+01
  1.32697E+04  1.69747E+01  1.32199E+04  2.92108E+01  1.31971E+04 -2.20618E+00  1.30699E+04  4.66896E+01
  1.30217E+04  5.93718E+00  1.29855E+04  2.25194E+01  1.29203E+04  2.13085E+01  1.28248E+04  2.07314E+01
  1.27320E+04  3.49612E+01  1.27271E+04  1.11195E+01  1.26788E+04 -6.71011E+00  1.25827E+04  2.69139E+01
  1.25400E+04 -4.40906E+01  1.25263E+04 -4.17073E+01  1.24673E+04  2.32342E+01  1.23244E+04  3.81775E+00
  1.22927E+04 -5.57315E+00  1.22428E+04  7.43758E+00  1.21707E+04 -4.27130E+00  1.21311E+04  1.12077E+01
  1.20555E+04 -3.22776E+01  1.20009E+04  2.89040E+00  1.19779E+04 -7.70766E+00  1.18921E+04  1.03314E+01
  1.18798E+04  3.25746E+01  1.17875E+04  9.01865E+00  1.17640E+04  2.34630E+01  1.17071E+04 -4.12127E-01
  1.16575E+04 -4.20673E+00  1.15517E+04  1.08234E+01  1.14817E+04 -4.79753E+01  1.14941E+04 -3.53196E+01
  1.13964E+04  2.00628E+01  1.13429E+04  3.74596E+00  1.13453E+04 -2.49566E+01  1.12509E+04  2.19705E+01
  1.11951E+04 -1.71575E+00  1.11712E+04  2.18853E+01  1.11006E+04 -4.41429E+01  1.10748E+04  4.00118E+00
  1.10055E+04 -3.13158E+01  1.09271E+04 -3.64393E+01  1.08699E+04 -3.58937E+01  1.08266E+04  1.59856E+01
  1.08343E+04  4.68996E+01  1.07227E+04 -9.49181E+00  1.07164E+04 -2.65899E+01  1.06217E+04  4.56966E+01
  1.05583E+04 -1.45590E+01  1.05292E+04 -3.81027E+01  1.05102E+04  4.38544E+01  1.04039E+04  4.40686E+01
  1.04295E+04  1.67121E+01  1.03423E+04 -2.59646E+01  1.02438E+04 -2.19483E+01  1.01914E+04 -1.37518E+01
  1.01651E+04  1.03375E+01  1.01081E+04 -1.91389E+01  1.00826E+04  6.07663E+00  1.00992E+04 -9.89786E+00
  1.00215E+04 -4.73357E+01  9.93609E+03  2.41211E+01  9.89606E+03  1.32692E+01  9.87542E+03 -2.50666E+01
  9.86110E+03 -1.40226E+01  9.75185E+03 -7.14337E+00  9.76682E+03 -1.95965E+01  9.71397E+03 -2.83770E+01
  9.65057E+03  8.08085E-01  9.58647E+03  3.36056E+01  9.56521E+03 -1.95310E+01  9.51991E+03 -2.39607E+01
  9.43719E+03  2.21845E+01  9.42075E+03 -3.00874E+01  9.39214E+03  2.53940E+01  9.29246E+03 -1.88262E+01
  9.29974E+03 -3.83693E+01  9.21080E+03 -5.12892E+01  9.24058E+03 -4.41348E+01  9.15107E+03 -7.05235E+00
  9.10004E+03  4.68033E+01  9.04142E+03 -3.18831E+01  9.04194E+03 -2.17411E+00  8.95994E+03  5.79849E+00
  8.93843E+03  2.48952E+01  8.87624E+03 -1.16615E+01  8.86558E+03  1.96000E+01  8.82936E+03 -6.05370E+00
  8.75525E+03 -1.19179E+01  8.75584E+03 -3.32824E+01  8.73638E+03  1.86768E+01  8.68493E+03  2.91079E+01
  8.58960E+03  2.16555E+01  8.54784E+03 -1.68313E+00  8.50750E+03  2.22732E+01  8.43907E+03 -2.08514E+01
  8.40148E+03  2.27869E+01  8.40165E+03 -3.42822E+01  8.32771E+03  5.05219E+00  8.29186E+03  2.86647E+01
