 $NMID ID='dataset18', FMTDAT='(8E13.5)'
 TRAMP=1, VOLUME=1 $END
  2.75202E+02  1.15732E+02  5.08131E+02  2.19186E+02  3.62529E+02  3.82885E+02  1.67054E+02  4.52229E+02
 -3.60526E+01  4.24608E+02 -1.67132E+02  3.07342E+02 -2.14410E+02  1.79791E+02 -1.96630E+02  5.11327E+01
 -1.43091E+02 -3.30900E+01 -4.64402E+01 -5.00060E+01  1.41791E+01 -1.97336E+01  2.62686E+01  1.84568E+01
  2.80362E+01  6.68759E+01 -2.51076E+00  9.57595E+01 -4.27224E+01  9.49491E+01 -7.29965E+01  7.79311E+01
 -8.80275E+01  4.00010E+01 -9.30771E+01  1.17209E+01 -9.59013E+01 -3.63605E+00 -8.07164E+01 -2.42184E+01
 -8.34581E+01 -4.49641E+01 -5.17910E+01 -7.84757E+01 -3.73670E+01 -8.58485E+01 -6.36627E+00 -8.46470E+01
  3.14921E+01 -7.64824E+01  5.14826E+01 -4.73282E+01  6.65152E+01 -7.00054E+00  4.80402E+01  2.06748E+01
  2.03981E+01  4.94696E+01 -1.37521E+01  4.88668E+01 -4.42778E+01  2.80013E+01 -5.79749E+01 -5.99533E-02
 -4.81639E+01 -3.15122E+01 -2.88350E+01 -6.76887E+01 -1.22464E+01 -8.84081E+01  3.73948E+01 -8.67081E+01
  6.68799E+01 -4.91232E+01  6.04602E+01 -3.32598E+01  8.00562E+01  5.81781E-01  6.98123E+01  7.06820E+00
  5.61330E+01  2.67964E+01  5.32125E+01  5.44258E+01  3.13518E+01  5.73946E+01  3.67974E+00  5.45578E+01
 -1.09069E+01  5.41707E+01 -1.31495E+01  3.31038E+01 -1.84684E+01  2.51862E+01 -2.44714E+01  1.06811E+01
 -1.60977E+01 -2.80343E+00  1.78334E+01 -3.53833E+00  2.85148E+01  7.79453E+00  1.48868E+01  2.32688E+01
 -7.76204E+00  3.63596E+01 -2.81227E+01  5.76382E+01 -4.79898E+01  4.02884E+01 -6.59276E+01  6.48304E+00
 -7.40269E+01 -2.92403E+01 -3.72299E+01 -5.71235E+01 -1.03013E+01 -6.97397E+01  2.11279E+01 -6.82872E+01
  5.52408E+01 -4.80326E+01  8.39278E+01 -1.06119E+01  6.03957E+01  3.16709E+01  3.93200E+01  4.84991E+01
  1.83293E+01  6.75458E+01 -2.28792E+01  6.62357E+01 -4.16604E+01  4.01664E+01 -4.53627E+01  2.43491E+01
 -3.00439E+01  8.24207E+00 -3.47167E+01 -1.58887E+01 -3.29811E+01 -2.10636E+01 -2.45517E+01 -4.56623E+00
 -1.30226E+01 -8.10829E+00  1.52329E+00 -9.33897E+00  9.97323E+00  9.52880E-01  2.18289E+00 -5.85826E+00
 -4.79810E+00 -4.01396E+00  3.10319E+00  1.50550E+01 -6.58249E+00  2.12796E+01 -3.23361E+01  1.72792E+01
 -4.70660E+01 -9.25780E+00 -3.85411E+01 -2.71142E+01 -2.50234E+01 -3.62854E+01 -1.24851E+01 -5.24320E+01
  7.58094E+00 -7.05572E+01  3.14385E+01 -4.58744E+01  5.72487E+01 -3.06665E+01  6.35300E+01  1.06484E+01
  4.44850E+01  3.53031E+01  2.33473E+01  4.86524E+01  2.43945E+00  4.88248E+01 -2.63401E+01  2.38657E+01
 -2.94518E+01  2.96068E+00 -2.45847E+01 -2.42677E+01 -2.91536E+00 -3.83439E+01  1.46900E+01 -4.26492E+01
  4.50017E+01 -2.46571E+01  3.93374E+01  7.54037E+00  4.60598E+01  1.67244E+01  4.39485E+01  3.39659E+01
  1.68675E+01  4.64937E+01 -3.29857E+00  5.87642E+01 -1.78330E+01  3.93778E+01 -3.58446E+01  4.24438E+01
 -3.89383E+01  2.54236E+01 -5.09002E+01  2.67650E+00 -5.75125E+01 -1.74011E+01 -4.12463E+01 -3.32052E+01
 -2.31785E+01 -3.70130E+01 -8.34261E+00 -4.70927E+01  6.54835E+00 -4.58467E+01  1.91138E+01 -2.90201E+01
  4.22949E+01 -2.98411E+00  3.09430E+01  4.14888E+00  2.30157E+01  9.51717E+00 -1.93877E-01  9.55960E+00
 -1.46821E+01  2.04179E+01 -1.18354E+01  7.34543E+00 -1.34402E+01 -2.27758E+01  4.76557E+00 -2.57219E+01
  1.82957E+01 -1.63576E+01  2.85758E+01 -1.20659E+01  2.63784E+01 -6.13339E+00  1.57908E+01  1.95035E+01
  1.24796E+01  2.47589E+01 -1.03160E+00  3.43186E+01 -1.84216E+01  2.83469E+01 -1.81890E+01  2.36284E+01
 -2.66733E+01  1.33844E+01 -2.85763E+01 -1.25712E+01 -2.58999E+01 -2.96247E+01 -1.74543E+01 -3.10522E+01
 -1.69414E+01 -3.69308E+01 -4.89388E+00 -3.27507E+01  2.49193E+01 -3.35169E+01  2.24866E+01 -2.68122E+01
  2.44765E+01 -1.46926E+00  4.05910E+01 -4.75211E+00  4.49675E+01  1.49201E+01  1.66229E+01  3.24937E+01
  1.07208E+01  3.14494E+01  5.12262E+00  2.48626E+01 -2.49845E+01  2.94012E+01 -1.39037E+01  2.08973E+01
 -1.20571E+01  1.50285E+01 -2.16297E+01  1.19642E+00 -5.72996E+00 -1.13877E+01 -1.22239E+01 -1.06149E+00
 -9.38842E+00 -5.30987E+00 -6.00299E+00  5.75593E+00 -7.36752E+00  8.25508E+00 -2.35540E+01  6.21554E+00
 -1.59943E+01  5.96380E+00 -2.93693E+01 -1.74739E+01 -1.71559E+01 -2.07604E+01 -1.31197E+01 -3.10552E+01
 -4.54248E+00 -3.66138E+01  5.72769E+00 -3.02406E+01  3.24670E+01 -1.38190E+01  2.17836E+01 -7.14643E+00
  3.28896E+01  1.21071E+01  2.47470E+01  8.84942E+00  6.31051E+00  2.12731E+01 -5.07776E+00  3.86457E+01
 -2.34579E+01  3.40850E+01 -2.38245E+01  1.25022E+01 -2.75582E+01  1.22718E+01 -3.22164E+01 -1.33618E+01
 -4.43996E+01 -2.45186E+01 -1.90308E+01 -4.28353E+01 -1.93702E+01 -3.81079E+01  1.51970E+01 -3.02313E+01
  2.21263E+01 -2.29543E+01  3.63106E+01 -1.64476E+01  3.10492E+01 -1.71929E+01  3.13252E+01 -5.48969E+00
  3.05040E+01  6.68066E+00  2.86073E+01 -5.64913E+00  2.03394E+01  8.17507E+00  1.47525E+01 -8.42023E+00
  3.08885E+01  5.71408E+00  2.16825E+01  1.20630E+01  2.99718E+01  1.61424E+01  2.28970E+01  2.69536E+01
  1.93662E+01  1.98857E+01  1.20414E+01  2.96424E+01 -1.03243E+01  3.70773E+01 -1.04421E+01  4.41453E+01
 -1.38547E+01  3.18667E+01 -2.01890E+01  1.24811E+01 -2.86806E+01  7.44065E+00 -2.54070E+01 -7.92000E-02
 -2.17671E+01 -7.24901E+00 -3.34227E+01 -2.63130E+01 -1.27424E+01 -1.62587E+01 -9.44583E+00 -2.85185E+01
  1.33591E+01 -2.60388E+01  9.79184E-01 -1.49909E+01  5.84476E+00 -1.63544E+01  1.35335E+00  1.90350E+00
 -1.35334E+00 -7.32379E-01 -2.25264E+00  1.72401E+01  3.84525E+00  9.71223E+00 -3.01439E+00 -6.00709E+00
  9.41423E-01 -1.01075E+01 -2.15254E+00  1.57896E+00 -1.67844E+00 -9.62269E+00  1.14028E+01 -5.78969E+00
  6.49982E+00  1.06867E+01  2.57617E+00  1.45990E+01 -3.57512E-01  2.50179E+00 -3.72074E+00  1.85621E+01
 -1.58472E+01 -1.22331E+00 -2.27593E+01  8.87559E+00 -8.17763E+00 -8.45079E+00 -2.11974E+01 -1.75940E+01
 -1.80938E+01 -2.16077E+01  6.71107E+00 -1.76779E+01 -1.15119E+00 -3.27280E+01  2.25522E+01 -3.18567E+01
  2.14911E+01 -1.45296E+01  1.80493E+01 -1.59846E+01  3.89947E+01  1.00666E+01  3.13191E+01  1.37798E+01
  2.73707E+01  1.99616E+01  1.66934E+01  3.02469E+01  9.61409E-01  3.09536E+01 -1.50264E+01  1.83757E+01
 -9.61717E+00  5.74114E+00 -1.23414E+01  5.45588E+00 -1.25496E+01 -4.29576E+00 -1.31162E+00 -9.73413E+00
 -6.78903E-01 -6.98383E+00  1.20696E+01 -1.20014E+00  4.43284E+00  8.94661E+00  1.25987E+01  1.17791E+00
  1.82621E+00  1.29809E+01  7.88272E+00 -7.11069E-01 -4.07930E+00 -3.91416E-01 -1.22766E+00  1.34641E+00
 -8.21658E+00  6.40534E+00  1.47336E+00  1.06459E+01  4.00598E+00  5.84039E+00  3.49407E+00  2.18575E+00
 -6.57591E-01  1.02181E+01 -3.20487E+00 -2.55147E+00 -3.20529E+00  2.66502E+00  5.45434E-01  1.36986E+01
 -8.71824E+00  2.01771E+01 -1.79083E+01  1.34834E+01 -6.30033E+00  2.71633E+00 -2.90093E+01  8.85412E+00
 -1.78646E+01 -1.10208E+01 -1.19095E+01 -1.50365E+01 -1.01206E+01 -2.51637E+01  6.25482E+00 -1.56048E+01
  1.21623E+01 -1.63012E+01  5.78425E+00 -8.41038E+00  6.54158E+00 -3.95887E+00  1.30900E+01  8.07724E+00
  1.85611E+00  4.58647E+00  1.35274E+00  9.69029E+00 -4.15345E+00  1.26507E+01 -1.13528E+01  1.89927E+00
 -1.16415E+01 -1.19801E+01  1.37274E+00  9.71132E-02  6.96839E+00 -2.26300E+00  6.32294E+00 -8.42026E+00
  2.25340E+01 -1.75898E+01  1.35488E+01 -4.44714E+00  1.13938E+01  1.11015E+01  1.40218E+01  1.55675E+01
  1.10194E+01  5.26385E+00  9.03887E+00  2.46868E+01 -9.77063E+00  8.09875E+00 -9.52849E+00  2.14010E+01
 -1.82783E+01  9.04709E+00 -2.01048E+01  2.41354E-01  2.20315E-01 -1.04744E+01 -6.49638E+00 -1.06161E+01
  7.32537E+00 -1.43138E+01  9.69544E+00  3.14909E+00 -4.41983E+00  5.22489E+00  1.51516E+01  7.84009E+00
  1.40827E+01  2.94271E+00  1.02139E+01  5.50058E+00 -1.62335E+00  1.23587E+01 -4.14890E+00  1.66410E+01
 -7.99058E+00 -3.30313E+00 -1.64696E+01 -1.03142E+00 -2.46748E+00 -3.55034E+00 -1.09320E+01 -6.52547E+00
 -8.75290E+00 -2.10617E+01  5.25817E+00 -1.19577E+01  4.77714E+00 -7.64163E+00  1.08086E+01  2.81949E+00
  2.54767E+01  1.22380E+01  7.06109E+00  1.83827E+00  8.15094E+00  1.94295E+01  8.76347E+00  7.46871E+00
  1.59593E+00  1.17518E+01 -1.22904E+01  3.18082E+00 -1.50728E+01  5.13705E-01 -1.96895E+01  4.01882E+00
 -1.95791E+01  3.89199E+00 -6.40793E+00  4.56605E+00  1.85806E-01 -4.69886E+00  3.14625E+00 -1.40939E+00
  3.12103E+00 -1.34607E+01  2.20562E+00  3.07033E+00  5.46501E+00 -4.40393E+00 -5.72105E+00  7.15943E+00
 -1.51282E+00 -6.63798E+00 -1.67986E+00  5.40599E-01  6.27527E-01 -8.06802E-01 -9.62358E+00 -1.44462E+01
  1.41811E+01 -6.23492E+00  1.64204E+01 -1.44915E+01  1.28188E+01 -1.17005E+01  1.77747E+01 -8.78664E+00
  9.26567E+00  5.12393E+00  1.56221E+01  1.63878E+01  6.84503E+00  3.23555E+00  6.60299E+00  9.53554E+00
 -4.03508E+00  7.80004E+00 -6.83803E+00  1.50688E+00 -6.04862E+00 -3.75047E+00 -1.14748E+01 -2.74633E+00
 -1.43600E+01  1.19314E+01 -6.25220E+00  5.59878E+00 -5.30928E+00 -1.02671E+01 -2.77313E+00  5.61068E+00
 -2.52451E-01 -9.21839E+00  5.54139E+00  9.56772E+00  7.05392E+00 -5.21832E+00 -1.32104E+01  9.02929E+00
 -1.11795E+01 -7.02359E+00 -1.47666E+01 -7.29127E-01  2.34693E+00 -5.42204E-01  4.87588E+00 -4.22813E+00
 -3.18234E+00 -1.31755E+01  6.72470E+00  6.26479E+00  1.42749E+00 -9.84678E+00  1.24503E+01  6.32465E+00
 -1.41317E+00  1.04543E+01 -8.28036E+00  8.73119E+00  5.55690E+00  1.01818E+01 -1.27946E+01  6.47966E+00
 -1.74951E+01 -3.40770E+00 -1.64224E+01 -4.41270E+00 -1.72932E+01 -4.71350E+00 -1.03157E+01 -9.16567E+00
 -1.01699E+01 -1.42498E+01 -5.48336E+00 -1.88777E+01  2.04206E+01 -2.66492E+01  1.19515E+01 -1.21973E+01
  1.20929E+01 -3.42201E-01  2.04268E+01  4.08882E+00  1.99075E+01 -8.51574E-01  7.36485E+00  1.85803E+00
  1.18518E+01  1.86033E+00  4.94116E+00  2.11808E+01 -2.26024E+00  1.24246E+01  4.93066E-01  2.15332E+01
 -1.45380E+00  3.44620E+00 -4.59706E+00  8.54114E+00 -2.33213E+00  1.63160E+01 -6.77024E+00  1.66278E+01
  5.45765E+00  1.27071E+01 -7.51421E+00  1.12438E+01 -5.41927E+00 -3.31010E+00 -1.64573E+01 -3.10519E+00
 -4.28834E+00  9.81399E+00 -1.09335E+01  6.48750E+00 -1.21222E+01 -1.88197E+01 -2.08473E+01 -1.52010E+01
