 $NMID ID='dataset3', FMTDAT='(8E13.5)'
 TRAMP=1, VOLUME=1 $END
  4.04330E+04 -1.14028E+01  4.00260E+04 -1.42102E+01  3.96517E+04 -1.49484E+01  3.92867E+04 -1.30558E+01
  3.89325E+04 -1.64948E+01  3.85600E+04  4.87144E+00  3.82006E+04  6.07521E+00  3.78372E+04 -4.63808E-01
  3.75007E+04 -6.71523E+00  3.71409E+04  8.37499E+00  3.67870E+04  3.88766E+00  3.64484E+04  1.60191E+01
  3.60987E+04  9.40470E+00  3.57510E+04  9.34759E+00  3.54178E+04  1.72874E+00  3.50871E+04 -8.52753E+00
  3.47785E+04 -6.01610E+00  3.44299E+04  4.76115E+00  3.41115E+04 -1.25831E+01  3.37993E+04 -6.90527E+00
  3.34765E+04  4.84072E+00  3.31604E+04 -1.06279E+01  3.28623E+04 -9.64019E+00  3.25591E+04  9.40636E+00
  3.22430E+04  7.18781E+00  3.19255E+04 -1.27629E+01  3.16485E+04 -8.79832E+00  3.13241E+04  1.18063E+01
  3.10384E+04 -1.28782E+01  3.07662E+04  1.06200E+01  3.04699E+04  1.51492E+00  3.01649E+04 -1.02915E+01
  2.98925E+04  1.10554E+01  2.96314E+04  1.56611E+01  2.93494E+04 -7.99798E+00  2.90639E+04 -1.61210E+01
  2.88039E+04 -3.21038E+00  2.85035E+04  3.44882E+00  2.82477E+04  1.32436E+01  2.80021E+04 -1.46838E+01
  2.77234E+04 -9.73044E-01  2.74621E+04  1.38628E+01  2.72142E+04  8.90259E+00  2.69683E+04 -6.59023E+00
  2.67145E+04  6.36822E+00  2.64426E+04  3.85374E+00  2.61974E+04 -1.48705E+01  2.59514E+04  1.55861E+01
  2.57088E+04  4.16546E-01  2.54571E+04 -1.69404E+00  2.52242E+04 -5.19011E+00  2.50010E+04  1.21784E+01
  2.47676E+04  2.62701E+00  2.45157E+04 -5.60416E+00  2.43054E+04  6.53167E+00  2.40573E+04  2.39370E-02
  2.38439E+04 -1.24133E+01  2.36037E+04  2.15942E+00  2.33891E+04 -1.20702E+01  2.31791E+04 -8.42455E+00
  2.29500E+04 -1.46758E+01  2.27629E+04 -1.15372E+01  2.25428E+04  6.20142E+00  2.23126E+04  5.84372E+00
  2.21272E+04  3.37187E+00  2.19175E+04 -2.61474E+00  2.17052E+04 -1.47022E+01  2.15117E+04 -3.25226E+00
  2.12939E+04  9.08030E-01  2.11074E+04  1.34025E+01  2.09077E+04  1.24792E+01  2.07103E+04 -1.63527E+01
  2.05030E+04 -1.13649E+01  2.03287E+04 -4.19442E+00  2.01309E+04  3.89283E+00  1.99291E+04 -1.69316E+01
  1.97488E+04 -1.17019E+01  1.95655E+04  1.20419E+01  1.93854E+04  1.27059E+00  1.91831E+04 -1.07278E+01
  1.90209E+04  1.03047E+01  1.88238E+04  1.03636E+01  1.86474E+04 -9.43071E+00  1.85028E+04  1.40807E+01
  1.83044E+04 -3.93384E+00  1.81312E+04  8.69083E+00  1.79601E+04 -1.45162E+01  1.78046E+04 -9.83802E+00
  1.76513E+04  8.11897E+00  1.74725E+04 -1.04069E+01  1.72968E+04 -1.32983E+01  1.71600E+04  1.61826E+01
  1.69807E+04  6.53030E+00  1.68345E+04  9.37289E-01  1.66759E+04 -1.39416E+01  1.65176E+04  5.37942E+00
  1.63532E+04  8.13703E+00  1.62120E+04 -8.04051E+00  1.60433E+04 -3.35535E+00  1.59054E+04  1.49641E+01
  1.57479E+04 -1.59350E+01  1.55924E+04 -4.74581E+00  1.54595E+04 -1.44135E+01  1.53088E+04  2.39653E+00
  1.51777E+04 -1.05554E+01  1.50133E+04  1.69084E+01  1.48775E+04  4.21773E+00  1.47378E+04  1.57641E+01
  1.46044E+04 -7.15391E+00  1.44685E+04  8.17905E+00  1.43376E+04  7.44922E-01  1.41897E+04  1.58406E+00
  1.40639E+04  1.62618E+01  1.39480E+04  1.67292E+01  1.38154E+04  7.24938E+00  1.36824E+04 -3.18490E+00
  1.35591E+04 -6.86164E+00  1.34035E+04  1.06223E+01  1.32788E+04 -1.59755E+01  1.31516E+04 -7.83956E+00
  1.30299E+04  1.43610E+01  1.29361E+04 -1.11497E+01  1.28112E+04  7.43225E+00  1.26906E+04  1.30295E+01
  1.25482E+04  1.07771E+01  1.24501E+04  8.68876E+00  1.23221E+04 -1.59198E+01  1.21996E+04 -8.75517E+00
  1.20829E+04 -1.41251E-01  1.19743E+04  3.48683E+00  1.18616E+04 -6.67666E-01  1.17595E+04  8.16715E+00
  1.16562E+04  1.08485E+01  1.15407E+04 -3.46936E+00  1.14385E+04  1.58540E+01  1.13277E+04 -6.06144E+00
  1.12042E+04 -4.28876E+00  1.11003E+04 -1.44521E+01  1.10117E+04  8.50885E+00  1.09053E+04 -1.12039E+01
  1.08027E+04  1.16659E+01  1.07045E+04 -2.83809E+00  1.06097E+04 -5.68169E-01  1.04901E+04  8.25357E+00
  1.03932E+04 -1.12401E+01  1.03185E+04 -7.30460E+00  1.02038E+04  2.10578E+00  1.01050E+04  6.48811E+00
  1.00055E+04 -1.54900E+01  9.93404E+03  9.85553E+00  9.83269E+03 -1.50379E+01  9.73271E+03  1.54775E+01
  9.63633E+03  1.41052E+01  9.54519E+03 -6.11410E+00  9.48121E+03  1.98652E+00  9.37192E+03 -9.74821E+00
  9.27707E+03  4.86214E-01  9.19102E+03 -1.16193E+00  9.11400E+03  1.38755E+01  9.01679E+03  1.69370E+01
  8.93661E+03 -1.57454E+01  8.85941E+03 -6.47789E+00  8.77322E+03 -2.97663E+00  8.70886E+03 -1.12975E+01
  8.61178E+03 -4.60742E+00  8.52044E+03  3.67653E+00  8.44589E+03 -1.67423E+01  8.36911E+03 -1.51190E+01
  8.28407E+03  9.87785E+00  8.20627E+03  1.12282E+01  8.13360E+03  3.71712E+00  8.07027E+03 -1.70184E+01
  7.99274E+03 -2.43874E+00  7.91203E+03 -7.87278E+00  7.85388E+03 -1.20868E-02  7.75987E+03 -1.44616E+01
  7.69217E+03 -8.18969E+00  7.61540E+03  1.31491E+01  7.55282E+03 -2.72458E+00  7.48239E+03 -4.37785E+00
  7.41810E+03 -1.44669E+01  7.33349E+03  4.49613E-01  7.26612E+03  1.30640E+01  7.21175E+03 -9.76747E+00
  7.15204E+03 -1.60780E+01  7.06004E+03  1.41108E+01  6.98609E+03  8.72064E+00  6.93764E+03  1.13195E+01
  6.87199E+03 -1.29907E+00  6.80224E+03  1.10305E+01  6.73162E+03 -8.02698E+00  6.69331E+03 -2.61027E+00
  6.63173E+03 -1.38119E+01  6.55574E+03  5.93123E+00  6.47746E+03 -1.28803E+01  6.43967E+03  1.10783E+01
  6.36937E+03  9.57825E+00  6.30495E+03  5.31365E+00  6.24491E+03  3.39429E+00  6.20708E+03  2.17278E+00
  6.13984E+03 -2.79008E+00  6.08227E+03 -1.68902E+01  6.02336E+03  9.39863E+00  5.96577E+03  1.40289E+01
  5.90965E+03  4.10495E+00  5.84300E+03 -7.41316E+00  5.79119E+03  9.80426E+00  5.74866E+03  4.30621E+00
  5.69205E+03 -4.59738E+00  5.62201E+03  8.83758E+00  5.57069E+03  1.43034E+00  5.54391E+03  1.29333E+01
  5.46595E+03 -1.53836E+01  5.43020E+03  1.16632E+01  5.39214E+03  5.86709E+00  5.31161E+03 -3.51998E+00
  5.28219E+03  9.63809E+00  5.21848E+03  6.58389E+00  5.16504E+03  5.80663E+00  5.14393E+03 -1.56818E+01
  5.07805E+03 -9.88472E+00  5.02522E+03  1.15653E+01  4.98933E+03 -7.14699E+00  4.95474E+03 -2.24803E+00
  4.88240E+03  8.51206E+00  4.86460E+03 -4.65526E-01  4.79553E+03 -1.17684E+01  4.76991E+03 -1.36770E+01
  4.69879E+03  4.07561E+00  4.68639E+03  8.05953E+00  4.60902E+03  9.21923E+00  4.57551E+03  1.44413E+01
  4.55562E+03  1.42754E+01  4.50363E+03  1.04375E+01  4.47026E+03  1.62711E+01  4.41480E+03  8.04153E+00
  4.37639E+03  1.33538E+01  4.33335E+03 -1.66058E+01  4.30417E+03  8.50989E+00  4.23398E+03  3.04046E+00
  4.21382E+03  1.57690E+01  4.18281E+03 -1.45384E+01  4.14300E+03  3.17307E+00  4.07885E+03 -1.62712E+01
  4.05401E+03  5.37330E+00  4.00639E+03  6.74058E+00  3.96341E+03  5.76684E+00  3.92855E+03 -1.63083E+01
  3.90201E+03  6.41702E+00  3.85546E+03  1.14738E+01  3.81530E+03 -1.19417E+01  3.79092E+03  9.93274E+00
  3.74491E+03  1.70952E+01  3.71012E+03  1.06116E+00  3.68011E+03 -1.60404E+01  3.66669E+03  4.13662E+00
  3.62550E+03  2.51712E+00  3.59411E+03  2.94695E+00  3.54115E+03 -6.08401E+00  3.51245E+03 -1.37591E+01
  3.49423E+03  3.54782E+00  3.44237E+03  4.19627E+00  3.41957E+03  6.07284E+00  3.39208E+03  7.88538E+00
  3.36048E+03  1.58232E+01  3.31052E+03  6.10995E+00  3.30927E+03  4.12704E+00  3.26809E+03 -1.69305E+01
  3.23179E+03  1.35619E+01  3.21325E+03  6.14858E+00  3.16805E+03 -7.40368E+00  3.15296E+03 -9.70744E+00
  3.12761E+03  1.63100E+01  3.06944E+03 -6.46249E+00  3.05660E+03  9.38361E-01  3.04347E+03 -1.04306E+01
  2.98353E+03  8.76938E+00  2.95362E+03 -1.28286E+01  2.93555E+03 -1.54037E+01  2.92215E+03 -9.69230E+00
  2.90465E+03 -1.45995E+01  2.87236E+03 -1.62252E+01  2.84641E+03  1.00426E+00  2.80520E+03 -9.10453E-01
  2.78027E+03  4.99299E-01  2.76127E+03  1.67545E+01  2.74439E+03 -1.26919E+01  2.68781E+03 -1.46681E+01
  2.67688E+03  1.02157E+01  2.66639E+03  9.45376E+00  2.63847E+03 -5.89312E+00  2.60403E+03  7.89583E+00
  2.57730E+03  9.47192E+00  2.56528E+03  8.61469E+00  2.53712E+03 -1.18934E+01  2.49692E+03 -1.36670E+01
  2.48596E+03  7.48773E+00  2.46015E+03 -4.04074E+00  2.42512E+03 -9.66556E+00  2.41181E+03  1.45598E+01
  2.38455E+03 -1.60765E+01  2.37557E+03  3.68348E+00  2.36123E+03  5.64576E+00  2.32376E+03  6.32661E+00
  2.29646E+03  1.56866E+01  2.29379E+03  4.27806E+00  2.26534E+03  1.31767E+01  2.22748E+03 -2.13219E+00
  2.23191E+03 -1.03149E+01  2.20421E+03 -1.23736E+00  2.18525E+03 -4.07820E+00  2.14701E+03 -7.00385E+00
  2.14360E+03 -9.37712E+00  2.12394E+03  1.07712E+01  2.11241E+03  1.15352E+01  2.09035E+03  9.23124E+00
  2.04156E+03  1.66287E+01  2.03777E+03 -1.36875E+01  2.01824E+03 -1.51051E+01  2.00566E+03  6.27374E+00
  1.97351E+03 -3.97645E+00  1.96451E+03 -1.66560E+01  1.95423E+03 -1.33077E+01  1.93373E+03 -1.33810E+01
  1.89892E+03 -7.11858E+00  1.89595E+03 -1.61348E+01  1.85544E+03  1.10080E+01  1.85711E+03  1.51692E+01
  1.82144E+03 -7.46428E+00  1.83499E+03  2.90175E+00  1.80555E+03  5.69622E+00  1.76872E+03 -1.37276E+01
  1.78322E+03  3.07738E+00  1.76809E+03 -8.73332E+00  1.74082E+03 -8.00481E+00  1.71529E+03  2.96961E+00
  1.71051E+03  1.32077E+01  1.70326E+03  1.31483E+01  1.68849E+03  1.35985E+01  1.65837E+03 -1.29106E+01
  1.65186E+03 -6.79469E+00  1.61825E+03 -1.16306E+01  1.59381E+03 -1.37347E+01  1.57758E+03  1.05955E+01
  1.58198E+03  4.70602E+00  1.58196E+03 -1.24303E+01  1.54392E+03 -4.54674E+00  1.53052E+03 -1.65141E+01
  1.53710E+03 -4.37567E+00  1.49042E+03  1.69427E+01  1.47586E+03  4.74470E+00  1.46728E+03  1.69274E+01
  1.47509E+03 -2.81756E+00  1.44184E+03  6.27052E+00  1.42628E+03 -5.22798E-01  1.42535E+03  5.42849E+00
  1.42405E+03  1.42316E+01  1.38671E+03  1.66551E+01  1.39509E+03 -8.86760E+00  1.36065E+03  4.99586E+00
  1.36161E+03 -1.17686E+00  1.33236E+03 -7.68689E+00  1.33335E+03  1.73623E-02  1.33511E+03 -9.50794E+00
  1.31581E+03 -1.22113E+01  1.30395E+03  1.03810E+01  1.29074E+03  9.07694E-02  1.26109E+03  8.95556E+00
  1.26996E+03 -1.44708E+01  1.25020E+03 -1.26431E+01  1.24075E+03 -4.71576E+00  1.23790E+03 -8.96790E+00
  1.22355E+03 -6.36635E+00  1.19068E+03  7.54144E+00  1.18198E+03 -1.68351E+01  1.17480E+03 -1.06439E+01
