 $NMID ID='dataset20', FMTDAT='(8E13.5)'
 TRAMP=1, VOLUME=1 $END
  4.98888E+04 -3.88083E+01  4.96942E+04 -3.55342E+01  4.94411E+04 -3.43055E+01  4.92754E+04  3.28195E+01
  4.90304E+04 -3.32725E+01  4.87560E+04  3.48968E+01  4.85708E+04  1.87079E+01  4.83317E+04  3.76439E+01
  4.81266E+04  4.58699E+01  4.78199E+04 -3.61556E+01  4.76235E+04  2.07484E+01  4.74325E+04 -4.27937E+01
  4.71502E+04 -5.69148E+00  4.69438E+04 -2.16084E+00  4.67306E+04  2.64961E+01  4.64967E+04  2.76490E+01
  4.63226E+04  9.74804E+00  4.60795E+04 -3.59180E+01  4.59006E+04  1.91038E+01  4.56780E+04 -1.72365E+01
  4.54188E+04  1.05043E+01  4.52551E+04  3.43037E+01  4.50357E+04  1.69049E+01  4.48482E+04 -1.63464E+01
  4.45532E+04 -3.01547E+01  4.44030E+04 -1.68726E+01  4.41567E+04 -4.41747E+00  4.39712E+04  3.22741E+00
  4.37835E+04 -3.88510E+01  4.35572E+04  3.72879E+01  4.33100E+04  3.95210E+00  4.31398E+04 -2.13097E+01
  4.29265E+04 -2.23381E+01  4.27548E+04 -7.24942E+00  4.25039E+04 -8.87305E+00  4.23697E+04  2.95959E+01
  4.21195E+04 -9.81580E+00  4.19238E+04 -7.48416E+00  4.17118E+04  2.85314E+01  4.15683E+04 -1.63241E+01
  4.13207E+04 -4.53347E+01  4.11795E+04  4.22769E+00  4.09948E+04 -3.60931E+01  4.07882E+04  1.71587E+01
  4.05396E+04  1.23785E+01  4.03974E+04  3.39956E+01  4.02239E+04 -2.13107E+01  4.00097E+04 -1.63436E+01
  3.98594E+04 -8.89640E+00  3.96038E+04 -2.43022E+01  3.94782E+04 -1.75518E-01  3.92784E+04  4.00110E+01
  3.90886E+04  2.19626E+01  3.88556E+04  7.23018E+00  3.87525E+04  3.17267E+01  3.85343E+04 -9.28718E+00
  3.83823E+04  3.68940E+01  3.81580E+04 -1.49558E+01  3.80047E+04  1.01444E+01  3.78479E+04  2.42887E+01
  3.76702E+04  3.50285E+01  3.74933E+04 -4.38384E+01  3.73173E+04 -1.93077E+01  3.71282E+04  3.38186E+01
  3.69773E+04  2.77667E+01  3.67632E+04 -2.17983E+00  3.66084E+04  4.35374E+01  3.63961E+04 -6.06458E+00
  3.62568E+04 -9.40585E+00  3.60458E+04 -3.18936E+01  3.58563E+04  1.42302E+01  3.57619E+04  4.08737E+01
  3.55975E+04  3.39204E+01  3.54002E+04 -4.06039E+01  3.52383E+04  2.20292E+01  3.50969E+04 -1.40803E+01
  3.49035E+04 -2.77239E+01  3.47498E+04 -2.09350E+01  3.45546E+04 -1.65289E+01  3.44418E+04  1.34933E+01
  3.42268E+04 -2.43976E+01  3.40819E+04 -1.87258E+01  3.39684E+04 -2.58144E+01  3.37308E+04  9.47337E+00
  3.36308E+04  2.12889E+01  3.34680E+04  3.99874E+00  3.32794E+04  3.66608E+01  3.31339E+04  4.48673E+01
  3.29725E+04  4.37519E+01  3.28050E+04  1.67463E+01  3.26830E+04 -1.49238E+00  3.25591E+04 -5.46471E+00
  3.23862E+04  1.35335E+01  3.21807E+04  4.64461E-01  3.20446E+04  2.23110E+01  3.19096E+04 -3.04573E+01
  3.17978E+04  2.99042E+01  3.16519E+04  1.26567E+00  3.14400E+04 -1.44388E+01  3.13267E+04 -2.56505E+01
  3.11837E+04  3.47573E+01  3.10581E+04 -4.66022E+01  3.09025E+04  2.18908E+01  3.06882E+04  1.31933E+01
  3.05408E+04  4.73350E+00  3.04538E+04 -2.37320E+01  3.02757E+04 -2.01309E+01  3.01604E+04  3.97571E+01
  2.99773E+04 -4.32833E+01  2.98342E+04 -1.72940E+01  2.96921E+04  4.05431E+01  2.96212E+04 -3.30837E+01
  2.94574E+04 -2.04029E+01  2.93106E+04  2.21254E+01  2.91599E+04  1.49318E+01  2.90466E+04  1.51793E+01
  2.89280E+04  4.05330E+01  2.87991E+04  2.64066E+01  2.86610E+04  1.66878E+00  2.84982E+04  1.92353E+01
  2.83448E+04 -3.04985E+01  2.82154E+04 -3.20310E+01  2.81103E+04 -2.93171E+01  2.79246E+04  4.15243E+01
  2.78754E+04 -3.16939E+01  2.77057E+04  2.62837E+00  2.75376E+04 -8.67427E+00  2.74050E+04 -2.22205E+01
  2.72897E+04 -1.20248E+01  2.71770E+04 -2.83502E+01  2.70946E+04  7.28760E+00  2.69418E+04 -4.23436E+01
  2.68347E+04  9.25229E+00  2.66650E+04 -3.12807E+01  2.65170E+04 -4.20742E+01  2.64686E+04 -1.12040E+01
  2.62830E+04  4.14978E+01  2.61358E+04 -2.01042E+01  2.60311E+04  2.61830E+01  2.59419E+04  4.33199E+01
  2.57781E+04 -4.69333E+01  2.57125E+04 -8.58921E+00  2.55515E+04 -4.18231E+01  2.54721E+04 -4.38283E+01
  2.53158E+04  3.20656E+01  2.52292E+04 -4.48159E-01  2.51376E+04  1.65305E+01  2.50028E+04 -3.07708E+01
  2.48298E+04  1.14934E+01  2.47791E+04 -4.13943E+01  2.46078E+04 -2.75446E+01  2.45102E+04  3.34993E+01
  2.43909E+04 -2.01142E+01  2.43020E+04 -1.12656E+01  2.42036E+04 -2.91276E+01  2.40435E+04 -1.03334E+01
  2.39412E+04 -3.16702E+00  2.38178E+04 -1.57864E+01  2.37157E+04 -3.27061E+01  2.35730E+04  3.74272E+01
  2.35109E+04  9.56627E+00  2.34191E+04 -1.50245E+01  2.32435E+04  2.77402E+01  2.31244E+04  1.09576E+01
  2.30710E+04 -2.67108E+01  2.29238E+04  1.95035E+01  2.28549E+04  3.92821E+01  2.26916E+04 -3.54122E+01
  2.26192E+04 -1.15775E+01  2.25445E+04 -6.17080E+00  2.23916E+04  4.65367E+01  2.23207E+04 -1.86066E+01
  2.22368E+04 -2.02508E+01  2.20593E+04 -2.28841E+01  2.19701E+04  3.66985E+01  2.19268E+04  3.42931E+01
  2.18061E+04 -2.41823E+01  2.16687E+04  4.19767E+01  2.15357E+04  2.96600E+01  2.15136E+04 -1.91929E+01
  2.14044E+04  1.14189E+01  2.12426E+04  9.00553E+00  2.11682E+04  3.03735E+01  2.11136E+04  1.43089E+01
  2.09493E+04 -3.59001E+01  2.08748E+04 -3.22651E+01  2.07602E+04  2.41266E+00  2.06795E+04 -2.18747E+01
  2.06310E+04 -1.62929E+01  2.05364E+04  2.97547E+01  2.03667E+04  1.50895E+01  2.02747E+04 -8.44513E+00
  2.02262E+04 -4.15510E+01  2.00761E+04 -4.10489E+01  1.99934E+04 -2.23750E+01  1.99542E+04 -4.61383E+01
  1.97884E+04  3.28773E+01  1.97362E+04 -3.82089E+01  1.96508E+04 -9.34222E+00  1.95811E+04 -8.46717E+00
  1.94770E+04 -3.76871E+01  1.93357E+04  2.68631E+01  1.93163E+04 -2.99072E+01  1.91612E+04  4.21815E+01
  1.91047E+04  2.16019E+01  1.89947E+04 -1.28423E+01  1.89434E+04  2.00351E+01  1.88039E+04  3.12645E+01
  1.87749E+04  6.72886E+00  1.86825E+04  4.69941E+00  1.85393E+04 -3.59620E+01  1.84596E+04  2.03339E+01
  1.83543E+04  2.87540E+01  1.83222E+04  3.98119E+01  1.81869E+04  4.10517E+01  1.81276E+04  1.23090E+01
  1.80200E+04 -1.60297E+01  1.79823E+04  2.09612E+01  1.78526E+04 -3.24182E+01  1.78180E+04  8.85036E+00
  1.76747E+04 -3.31369E+01  1.76500E+04  2.39629E+01  1.75653E+04  7.64928E+00  1.74275E+04  4.02685E+01
  1.73791E+04  3.14852E+01  1.73046E+04 -9.37532E+00  1.72463E+04 -3.60828E+01  1.71541E+04  3.47524E+01
  1.70690E+04 -2.07044E+01  1.69552E+04 -2.57604E+01  1.68927E+04 -3.51493E+01  1.67927E+04  7.52984E+00
  1.67736E+04  4.12670E+01  1.66787E+04  1.52896E+01  1.66142E+04  8.34888E+00  1.65092E+04 -3.36101E+00
  1.64195E+04 -1.17146E+01  1.63423E+04 -2.04784E+01  1.62877E+04 -2.84578E+01  1.62022E+04 -8.71538E+00
  1.61477E+04  1.88586E+01  1.59946E+04 -4.63055E+01  1.59374E+04 -7.24569E+00  1.58977E+04  4.66091E+01
  1.57976E+04 -3.82635E+01  1.57775E+04  4.14687E+01  1.56333E+04  8.59790E+00  1.56250E+04 -1.33359E+01
  1.55589E+04  4.37890E+01  1.54882E+04 -6.43031E+00  1.53543E+04 -2.37234E+01  1.52919E+04 -3.84809E+01
  1.52032E+04  1.40587E+01  1.51668E+04 -3.27928E+01  1.50801E+04  1.87618E+00  1.50419E+04  8.45730E-01
  1.49144E+04  3.45546E+01  1.48815E+04  1.62216E+01  1.48027E+04  4.72822E-01  1.47246E+04  2.14157E+01
  1.46875E+04 -3.65574E+01  1.46148E+04 -4.40590E+01  1.45474E+04 -3.85924E+01  1.44381E+04 -2.54249E+01
  1.44115E+04  3.66538E+01  1.42804E+04 -1.14483E+01  1.42688E+04  2.12528E+01  1.41425E+04  4.47676E+01
  1.41380E+04 -4.08448E+00  1.40329E+04  2.83760E+01  1.40194E+04 -4.12331E+01  1.39627E+04 -1.85781E+01
  1.38681E+04  3.41666E+00  1.38168E+04  2.15603E+01  1.36919E+04  5.71388E+00  1.36765E+04  2.62180E+01
  1.36241E+04 -4.12087E+01  1.35397E+04  4.41788E-01  1.34358E+04  1.14861E+01  1.34515E+04 -3.98989E+01
  1.33542E+04 -1.35399E+01  1.32828E+04 -1.16943E+01  1.32314E+04  1.72975E+01  1.31927E+04 -2.66574E+00
  1.31387E+04 -2.15898E+01  1.30116E+04 -3.87456E+01  1.30150E+04  2.81039E+00  1.29504E+04 -2.82338E+01
  1.28338E+04 -1.19349E+01  1.27658E+04  3.44648E+01  1.27441E+04 -1.20854E+01  1.26718E+04 -1.18055E+01
  1.25825E+04 -1.61459E+01  1.25346E+04 -6.39764E+00  1.25160E+04  3.50456E+01  1.24299E+04  6.96436E+00
  1.23394E+04 -2.83065E+01  1.23390E+04 -3.91525E+01  1.22628E+04  2.73315E+01  1.21809E+04  1.64567E+00
  1.21629E+04  2.33898E+01  1.20864E+04  3.81741E+01  1.20426E+04 -3.42395E-02  1.19731E+04 -9.91727E+00
  1.19493E+04 -3.72130E+01  1.18243E+04  2.60339E+01  1.17659E+04  8.47723E+00  1.17823E+04  4.58080E+01
  1.17118E+04  3.20051E+01  1.16187E+04 -4.17753E+01  1.16054E+04  7.48252E+00  1.15717E+04  1.11950E+01
  1.15119E+04  1.47902E+01  1.14383E+04  1.43386E+00  1.14114E+04 -3.48027E+01  1.13410E+04 -3.09709E+01
  1.12537E+04 -2.02284E+01  1.12012E+04  4.46474E+01  1.11606E+04 -2.02078E+01  1.11351E+04  9.08176E+00
  1.10959E+04  3.89136E+01  1.10389E+04  2.79525E+00  1.09531E+04 -3.39804E+01  1.08952E+04  3.68246E+01
  1.08847E+04  2.61014E+01  1.08379E+04  2.53327E+01  1.07020E+04  1.13077E+00  1.06506E+04 -1.80454E+01
  1.06570E+04  3.81809E+00  1.05472E+04 -2.98713E+01  1.05066E+04 -3.04240E+01  1.05170E+04  3.25830E+01
  1.04395E+04  3.74487E+00  1.04268E+04 -4.57620E+00  1.03608E+04 -4.54895E+01  1.03168E+04  3.79102E+01
  1.02544E+04 -1.05815E+01  1.02428E+04  2.30699E+01  1.01796E+04 -1.66286E+01  1.01067E+04  3.67762E+01
  1.00549E+04 -4.36775E+01  1.00150E+04 -2.72775E+01  9.95510E+03  2.51656E-02  9.88136E+03 -2.32001E+01
  9.85281E+03 -3.13086E+01  9.84805E+03 -2.27244E+01  9.78080E+03 -7.93148E+00  9.77286E+03  3.35796E+01
  9.70925E+03  3.96658E+01  9.64693E+03  3.90060E+01  9.59654E+03 -3.31317E+01  9.58452E+03 -7.81751E-01
  9.53382E+03 -3.91946E+01  9.47346E+03 -1.17337E+01  9.38020E+03  2.06016E+01  9.32625E+03  3.63718E+00
  9.37417E+03  3.95430E+01  9.28440E+03  2.03722E+01  9.25768E+03  3.87351E+01  9.16464E+03 -2.56792E+01
  9.11893E+03  4.26685E+01  9.12686E+03  2.04098E+01  9.02458E+03 -4.19998E+01  8.99051E+03 -9.09621E+00
  8.94426E+03 -2.06175E+01  8.94737E+03  1.28268E+01  8.93155E+03  5.62797E+00  8.84446E+03 -3.53965E+01
  8.81814E+03  3.62527E+01  8.73240E+03  6.84115E+00  8.76708E+03 -4.49895E+01  8.73374E+03 -1.83779E+01
  8.66617E+03 -4.25255E+01  8.60070E+03 -2.46493E+01  8.53967E+03 -2.14203E+01  8.57098E+03  8.90040E+00
