 $NMID ID='dataset12', FMTDAT='(8E13.5)'
 TRAMP=1, VOLUME=1 $END
  4.98990E+04 -3.70889E+01  4.97237E+04  6.81060E+01  4.95393E+04  1.86888E+01  4.92553E+04 -8.42614E+01
  4.90454E+04  7.83810E+01  4.88288E+04 -5.42464E+01  4.85710E+04  5.93801E+01  4.83550E+04 -3.17321E+01
  4.81644E+04 -2.06835E+01  4.78321E+04  1.45012E+01  4.76609E+04  2.62671E+01  4.73642E+04  7.49952E+01
  4.71991E+04 -2.17084E+00  4.70494E+04  8.21306E+01  4.67771E+04  6.18888E+01  4.64704E+04  1.30977E+01
  4.62716E+04  1.57047E+01  4.61178E+04  3.38926E+01  4.59433E+04 -7.50629E+01  4.56626E+04 -8.49373E+01
  4.55199E+04  7.25747E+01  4.52448E+04  1.74030E+00  4.50490E+04 -7.29706E+01  4.48344E+04  6.92876E+01
  4.45885E+04  2.30907E+01  4.43073E+04 -4.35486E+01  4.41109E+04 -3.38438E+00  4.40250E+04 -5.61938E+01
  4.37821E+04 -9.68050E+00  4.34952E+04 -7.70874E+01  4.33792E+04 -8.86652E+00  4.30686E+04 -1.86815E+01
  4.28946E+04 -8.40115E+01  4.28156E+04  8.13614E+01  4.25402E+04  4.43279E+01  4.22550E+04  3.71819E+01
  4.22065E+04 -5.41209E+01  4.20007E+04  6.05951E+01  4.16899E+04 -1.96765E+01  4.14970E+04  7.33681E+01
  4.13519E+04  6.84106E+01  4.11872E+04 -1.68658E+00  4.09113E+04  8.53527E+01  4.07593E+04  5.90516E+01
  4.05465E+04 -1.63951E+00  4.04164E+04 -5.07515E+01  4.01850E+04 -3.53327E+01  3.99389E+04 -2.31185E+01
  3.98484E+04  4.01154E+01  3.95793E+04 -8.07302E+01  3.94899E+04  6.51413E+01  3.91878E+04 -8.41031E+01
  3.90467E+04  3.71305E+01  3.88952E+04  3.73805E+01  3.87099E+04  4.92442E+01  3.85047E+04  3.31550E+01
  3.83285E+04 -7.00245E+01  3.81632E+04 -5.78398E+01  3.80176E+04  6.56015E+01  3.77938E+04  7.84602E+01
  3.77173E+04  3.53182E+01  3.74866E+04 -7.14505E+01  3.72235E+04 -6.86803E+00  3.70463E+04 -7.58115E+01
  3.69322E+04 -6.59844E+01  3.67003E+04 -1.84266E+01  3.65247E+04  6.20881E+01  3.64562E+04 -4.19547E+01
  3.62269E+04  5.26515E+01  3.61084E+04 -8.18300E+01  3.58363E+04  1.98669E+01  3.57464E+04  8.53853E+01
  3.55531E+04  8.53053E+01  3.53120E+04  5.05937E+01  3.51878E+04 -1.35293E+01  3.51072E+04  8.51266E+01
  3.49354E+04 -7.89166E+01  3.47598E+04 -8.53311E+01  3.46425E+04  4.10819E+00  3.43621E+04 -1.66800E+01
  3.41839E+04 -4.02303E+00  3.40638E+04 -3.77243E+01  3.40021E+04  1.33644E+01  3.37799E+04 -2.41015E+01
  3.35552E+04  6.67028E+01  3.33688E+04  5.69647E+01  3.32666E+04 -3.53558E+01  3.31006E+04 -5.26746E+01
  3.30436E+04  2.13078E+01  3.27970E+04  1.33667E+01  3.27424E+04  1.01818E-01  3.24526E+04  5.06684E+01
  3.23900E+04 -8.21511E+01  3.21861E+04 -4.65101E+01  3.19883E+04 -7.61546E+01  3.19008E+04  2.74807E+01
  3.18164E+04 -5.07310E+01  3.15857E+04  3.51208E+01  3.14182E+04  4.91105E+01  3.12409E+04 -2.53715E+01
  3.12191E+04 -2.58552E+01  3.10018E+04 -3.45218E+01  3.08515E+04 -3.78620E+01  3.06518E+04  6.55809E+01
  3.05790E+04 -3.78177E+01  3.05168E+04  7.17502E+01  3.02754E+04  8.21022E+01  3.01425E+04  4.95227E+01
  3.00734E+04  1.58863E+01  2.97907E+04  2.24895E+01  2.97852E+04 -4.46329E+01  2.96239E+04 -5.98485E+01
  2.94791E+04  4.71686E+01  2.93071E+04  1.62381E+01  2.92628E+04 -3.54001E+01  2.90117E+04 -4.59902E+01
  2.89000E+04 -5.53453E+01  2.88485E+04 -7.46029E-01  2.86933E+04 -3.59518E+01  2.85319E+04  2.41832E+01
  2.82971E+04 -8.04038E+01  2.83064E+04 -3.42695E+01  2.80314E+04 -6.53652E+01  2.79583E+04  7.48122E+01
  2.77991E+04 -2.24729E+01  2.77351E+04  3.77912E+01  2.76600E+04 -1.03885E+01  2.75239E+04 -8.51202E+01
  2.72729E+04 -7.28195E+01  2.72155E+04  8.54891E+01  2.70245E+04 -4.67746E+00  2.69333E+04  8.01414E+01
  2.67584E+04 -4.26026E+01  2.67211E+04  9.87623E+00  2.66108E+04 -3.48360E+01  2.64039E+04 -6.28307E+01
  2.62960E+04  8.81609E+00  2.62312E+04 -4.25866E+01  2.60780E+04 -6.06269E+01  2.59746E+04  5.61722E+01
  2.58141E+04 -8.15108E+01  2.56617E+04 -9.35670E+00  2.56232E+04  3.52584E+01  2.54909E+04 -4.97592E+01
  2.52543E+04  8.35673E+01  2.51533E+04  6.52793E+00  2.51232E+04 -6.11224E+01  2.50562E+04 -2.44064E+01
  2.47785E+04  8.42732E+01  2.48163E+04 -4.65599E+01  2.46602E+04  2.33624E-01  2.44415E+04  7.45153E+01
  2.43112E+04  6.12308E+01  2.42695E+04 -6.11523E+01  2.41762E+04  4.24298E+01  2.41087E+04  3.82405E+01
  2.39121E+04  1.91649E+01  2.39008E+04 -6.16960E+01  2.37001E+04  2.92118E+01  2.35325E+04  5.15245E+01
  2.35712E+04  4.54971E+01  2.33826E+04  4.97576E+01  2.31959E+04 -2.70996E+01  2.31796E+04 -1.77989E+01
  2.30160E+04 -3.65410E+01  2.29711E+04 -4.46059E+01  2.28143E+04 -6.76709E+01  2.27398E+04  8.94769E+00
  2.25534E+04  2.17670E+01  2.25830E+04  4.67714E+00  2.24923E+04  2.45985E+00  2.23125E+04 -2.77860E+01
  2.21631E+04 -6.87549E+01  2.21645E+04 -8.20217E+01  2.19515E+04  5.22775E+01  2.19349E+04  6.60206E+01
  2.17139E+04  7.95570E+01  2.16999E+04 -3.66185E+01  2.16337E+04  4.37778E+01  2.15463E+04 -5.05179E+01
  2.13919E+04  7.04511E+01  2.12926E+04  3.00245E+01  2.12586E+04  3.40575E+00  2.10152E+04  3.78820E+01
  2.10113E+04  8.75486E+00  2.09558E+04  1.51304E+00  2.08235E+04 -4.07119E+01  2.07189E+04  1.02223E+01
  2.05099E+04 -2.27086E+01  2.05626E+04  5.96627E+01  2.03609E+04  4.65910E+01  2.02456E+04  7.85482E+01
  2.01214E+04  8.18686E+01  2.01513E+04 -1.79659E+01  1.99992E+04 -6.01276E+01  1.99231E+04  3.18685E+00
  1.98917E+04  2.41495E-01  1.97726E+04  3.25395E+01  1.96912E+04  3.61616E+01  1.95538E+04 -2.02440E+01
  1.94455E+04 -4.04992E+01  1.94121E+04  4.64567E+01  1.92259E+04  7.45412E+01  1.92511E+04  6.56421E+01
  1.91744E+04  1.63005E+01  1.90721E+04  1.93894E+01  1.89618E+04  3.98684E+01  1.88463E+04  6.27794E+01
  1.87673E+04  8.94882E+00  1.86190E+04 -7.77205E+01  1.85293E+04 -8.32909E+01  1.84812E+04  4.92600E+01
  1.83633E+04  6.51622E+01  1.83766E+04  3.14908E+01  1.82456E+04 -5.63780E+01  1.80487E+04  7.80748E+01
  1.79925E+04 -7.24055E+01  1.80185E+04  8.14107E+01  1.77942E+04 -1.24581E+01  1.78371E+04  6.23165E+01
  1.77526E+04 -5.53345E+01  1.76605E+04  3.33377E+01  1.75651E+04  6.28585E+01  1.75051E+04 -7.14990E+01
  1.73257E+04 -3.88271E+01  1.72084E+04  8.07473E+01  1.72862E+04 -5.58544E+01  1.70954E+04  1.20213E+01
  1.69911E+04  2.37018E+01  1.70177E+04  7.08100E+01  1.68196E+04 -4.47979E+01  1.68605E+04 -1.58166E+01
  1.66595E+04  2.38465E+01  1.66516E+04  6.73293E+01  1.65367E+04 -4.77151E+01  1.65696E+04 -5.05852E+01
  1.64646E+04  8.19936E+01  1.64082E+04 -6.81988E+01  1.62781E+04  7.28087E+00  1.62691E+04 -5.11893E+00
  1.60413E+04 -1.29543E+01  1.61160E+04 -2.27973E+01  1.60257E+04 -4.80858E+01  1.59234E+04 -1.16916E+01
  1.58444E+04 -6.44066E+01  1.57141E+04 -6.59722E+01  1.56692E+04  2.22379E+01  1.56412E+04  3.58172E+00
  1.56011E+04 -3.98139E+01  1.54255E+04 -8.20068E+01  1.53651E+04 -6.54300E+01  1.53339E+04 -8.20765E+00
  1.51807E+04 -6.53263E+01  1.51002E+04  6.63307E+01  1.51683E+04 -3.76076E+01  1.50350E+04  1.14713E+00
  1.50210E+04 -5.80992E+01  1.48119E+04  6.74619E+01  1.48045E+04  5.39033E+01  1.46795E+04  7.41622E+00
  1.46253E+04  3.91999E+01  1.46138E+04  2.50062E+01  1.45021E+04  8.44800E+01  1.43967E+04 -8.24592E+00
  1.43910E+04  1.81877E+01  1.42752E+04  2.55617E+01  1.42317E+04  5.61946E+01  1.41302E+04  6.70314E+01
  1.41331E+04 -3.90923E+01  1.41345E+04 -8.04192E+01  1.40531E+04  1.48160E+01  1.39539E+04  9.00666E+00
  1.38199E+04  3.72621E+00  1.38316E+04  1.48245E+01  1.36497E+04 -2.91168E+01  1.35833E+04  4.02509E+01
  1.36843E+04 -5.54121E+00  1.36048E+04  9.26606E+00  1.34205E+04  3.13777E+01  1.34091E+04  1.06186E+01
  1.33556E+04 -1.74207E+00  1.32639E+04 -4.30735E+01  1.31373E+04  1.16671E+01  1.31831E+04  3.57049E+01
  1.30691E+04 -5.94488E+01  1.31140E+04  5.70915E+01  1.29987E+04  4.27881E+01  1.29547E+04  3.56422E+01
  1.28009E+04  4.12909E+01  1.28701E+04  3.86156E+01  1.28020E+04  6.64112E+01  1.26101E+04  8.24178E+01
  1.26421E+04  1.97745E+01  1.24749E+04 -6.32975E+00  1.25640E+04 -9.59714E+00  1.23520E+04 -2.17461E+01
  1.23150E+04  1.12556E+01  1.23183E+04 -1.39625E+01  1.22639E+04 -3.44154E+01  1.22674E+04  6.50775E+01
  1.20891E+04 -2.98836E+01  1.20192E+04 -8.37113E+01  1.20623E+04 -5.86362E+01  1.19513E+04 -3.19916E+01
  1.19029E+04  3.55929E+00  1.18819E+04 -5.13416E+00  1.17730E+04  4.95933E+01  1.17848E+04  1.13178E+01
  1.16906E+04  7.97015E+01  1.16913E+04  6.61683E+01  1.15796E+04 -8.08711E+01  1.16072E+04 -4.03291E+01
  1.14783E+04  6.37781E+01  1.13438E+04 -1.55547E+01  1.14278E+04  7.21559E+01  1.13858E+04 -8.10881E+01
  1.12684E+04 -7.87725E+01  1.12886E+04  4.60969E+01  1.11337E+04  5.39069E+01  1.10820E+04 -5.66460E+01
  1.10971E+04 -3.69385E+01  1.09512E+04  3.35280E+01  1.08922E+04  6.26219E+01  1.08429E+04 -3.28444E+01
  1.09292E+04  7.75410E+01  1.08206E+04 -3.15777E+01  1.07682E+04 -3.79937E+01  1.06985E+04 -2.86648E+00
  1.06081E+04 -1.74590E+01  1.06574E+04  6.40366E+01  1.05766E+04  6.72255E+01  1.05467E+04  6.63602E+01
  1.03751E+04  2.17654E+01  1.03975E+04 -6.28987E+01  1.03247E+04  5.93003E+01  1.03506E+04  6.13404E+01
  1.02041E+04  7.24446E+01  1.02489E+04  3.59123E+01  1.00850E+04  7.23345E+01  1.01459E+04 -2.77353E+01
  1.00395E+04  3.80071E+01  1.00229E+04  4.95210E+01  9.91028E+03 -8.64696E+00  9.87194E+03 -6.13535E+01
  9.84431E+03  7.00544E+01  9.86427E+03 -4.77980E+01  9.85790E+03 -6.83371E+01  9.70962E+03  8.00686E+01
  9.76806E+03 -5.87811E+01  9.61720E+03 -7.27114E+00  9.63094E+03  1.87596E+01  9.47864E+03  8.16075E+01
  9.53581E+03 -5.22972E+01  9.38265E+03  1.15399E+00  9.46020E+03 -3.61925E+01  9.31254E+03  2.11971E+01
  9.31560E+03  1.02522E+01  9.29930E+03  5.53571E+01  9.27557E+03 -1.24221E+00  9.24091E+03  2.35488E+01
  9.11236E+03 -7.00061E+00  9.18968E+03 -6.98472E+01  8.99105E+03 -7.16271E+01  8.95592E+03  8.23223E+01
  8.94677E+03 -5.93949E+01  8.87317E+03  5.16559E+01  8.88030E+03 -5.72283E+01  8.93924E+03  7.65602E+01
  8.83452E+03 -2.83459E+01  8.81030E+03 -5.31050E+01  8.69622E+03  7.07026E+01  8.61642E+03 -6.91441E+01
  8.64742E+03  1.73407E+01  8.60386E+03 -3.72743E+00  8.55057E+03  4.06721E+01  8.53234E+03 -3.70563E+01
