 $NMID ID='dataset9', FMTDAT='(8E13.5)'
 TRAMP=1, VOLUME=1 $END
  4.87370E+04 -2.08369E+01  4.85190E+04 -1.61447E+01  4.82938E+04  1.21852E+01  4.80709E+04  9.02762E+00
  4.78350E+04 -1.65918E+01  4.75870E+04  2.22246E+01  4.73858E+04  5.19074E+00  4.71556E+04 -9.34858E+00
  4.69349E+04  5.10077E+00  4.67279E+04 -9.29196E+00  4.64781E+04  1.71665E+01  4.62584E+04  2.31601E+01
  4.60861E+04 -1.57583E+01  4.58561E+04  6.35666E+00  4.56179E+04 -1.09974E+01  4.54175E+04  1.42474E+01
  4.51915E+04  1.87276E+01  4.49777E+04 -4.10268E-01  4.47851E+04 -1.62802E+01  4.45842E+04  1.94618E-01
  4.43581E+04 -9.30796E+00  4.41450E+04 -7.75536E+00  4.39610E+04  1.89096E+01  4.37398E+04 -8.59570E-01
  4.35261E+04  1.18447E+01  4.33243E+04 -8.88671E+00  4.31216E+04 -2.22028E+01  4.28986E+04 -4.84413E+00
  4.27172E+04  2.13228E+01  4.25310E+04  2.31235E+01  4.23382E+04 -7.36176E+00  4.21100E+04  3.03868E+00
  4.19096E+04  7.14038E+00  4.17245E+04 -1.32289E+01  4.15213E+04 -8.23885E+00  4.13281E+04  9.41619E+00
  4.11603E+04 -9.79841E+00  4.09337E+04 -1.90318E+00  4.07351E+04 -7.08459E+00  4.05500E+04 -8.72019E+00
  4.03549E+04 -2.17739E+01  4.01974E+04  1.01965E+01  4.00043E+04 -3.35817E+00  3.97949E+04 -1.05545E+01
  3.95982E+04  2.18715E+01  3.94421E+04  1.24613E+01  3.92615E+04  2.11161E+01  3.90476E+04  1.61029E+01
  3.88742E+04 -7.11445E+00  3.86917E+04  1.29794E+01  3.85187E+04  1.72312E+01  3.83387E+04 -6.34958E+00
  3.81694E+04 -1.23086E+01  3.79754E+04  1.46595E+01  3.77950E+04  8.14186E-01  3.76290E+04  1.67844E+01
  3.74382E+04  1.49264E+01  3.72763E+04 -1.20213E+01  3.70967E+04  5.75040E+00  3.69160E+04  1.42060E+01
  3.67491E+04 -2.04681E+01  3.65712E+04  1.48747E+01  3.64130E+04  7.37724E+00  3.62446E+04 -1.70268E+01
  3.60616E+04 -1.78732E+01  3.58638E+04  1.87338E+01  3.57198E+04 -1.45745E+01  3.55342E+04 -8.54517E+00
  3.53894E+04 -2.23483E+01  3.52000E+04  2.81371E+00  3.50244E+04  1.67673E+01  3.48781E+04 -1.59801E+01
  3.47216E+04 -3.38750E+00  3.45481E+04 -1.69467E+01  3.43815E+04  3.32220E+00  3.42308E+04 -9.82863E+00
  3.40599E+04  1.95689E+01  3.38998E+04  8.51338E+00  3.37593E+04  1.63528E+01  3.36097E+04 -1.36110E+01
  3.34134E+04  1.20355E+01  3.32902E+04  4.71638E+00  3.31091E+04 -2.10894E+01  3.29480E+04  4.26732E+00
  3.27869E+04 -3.54256E-01  3.26604E+04 -1.49767E+01  3.25102E+04  1.36736E+01  3.23327E+04 -1.13445E+01
  3.22195E+04 -1.62184E+01  3.20240E+04  1.20070E+01  3.18770E+04 -2.06120E+01  3.17652E+04 -1.15692E+01
  3.15954E+04  9.82818E+00  3.14326E+04  1.93158E+01  3.12782E+04 -1.73754E+01  3.11705E+04  1.92044E+00
  3.10110E+04 -5.77112E+00  3.08665E+04  6.39352E+00  3.06986E+04  2.16682E+01  3.05790E+04  1.63730E+01
  3.04123E+04 -8.11224E+00  3.02980E+04  1.24317E+01  3.01626E+04  9.72045E+00  3.00151E+04  6.71575E+00
  2.98540E+04 -1.81790E+01  2.97216E+04  2.88513E+00  2.95638E+04 -8.36416E+00  2.94589E+04  1.47655E+01
  2.92825E+04  4.12647E+00  2.91838E+04 -1.69111E+01  2.90068E+04  1.32604E+01  2.89018E+04 -4.09151E+00
  2.87524E+04  1.36647E+01  2.86222E+04 -2.31992E+01  2.84988E+04 -1.27791E+01  2.83645E+04  1.77784E+00
  2.81957E+04  2.01907E+01  2.80682E+04 -1.78389E+01  2.79565E+04 -1.19532E+01  2.78156E+04 -5.72556E+00
  2.76858E+04  5.30470E+00  2.75775E+04 -2.25467E+01  2.74090E+04 -1.08445E+01  2.72923E+04 -1.92467E+01
  2.71782E+04 -7.85006E+00  2.70438E+04  1.13592E+01  2.69048E+04  1.31316E+01  2.67760E+04  1.31101E+01
  2.66502E+04 -1.44660E+01  2.65546E+04  9.69682E+00  2.64096E+04  1.67130E+01  2.62683E+04 -2.07690E+00
  2.61761E+04 -3.96490E+00  2.60307E+04  1.63887E+01  2.59387E+04 -1.23207E+01  2.57822E+04  1.11296E+01
  2.56837E+04  1.14136E+01  2.55547E+04 -8.61001E+00  2.54476E+04  1.37359E+01  2.53100E+04 -1.33642E+01
  2.52141E+04 -5.70978E+00  2.50795E+04  2.26315E+01  2.49401E+04 -7.38039E+00  2.48629E+04  2.12538E+00
  2.47087E+04 -1.10199E+01  2.46191E+04  2.32528E+01  2.44913E+04 -8.13545E+00  2.43739E+04 -1.17930E+01
  2.42826E+04 -2.67397E+00  2.41608E+04 -1.64742E+01  2.40205E+04 -2.27649E+01  2.39280E+04 -1.36467E+01
  2.38226E+04 -2.23266E+01  2.37188E+04  9.49895E+00  2.35924E+04 -1.59241E+01  2.34602E+04 -1.78552E+01
  2.33705E+04  1.89660E+01  2.32622E+04  1.60648E+01  2.31573E+04 -1.11873E+01  2.30488E+04 -2.23144E+01
  2.29497E+04 -5.06872E+00  2.28417E+04  1.72448E+01  2.26988E+04 -1.42496E+01  2.26056E+04 -1.00589E+01
  2.24849E+04  7.42600E+00  2.24059E+04 -8.00218E+00  2.23034E+04  1.97563E+01  2.21743E+04 -1.03782E+01
  2.20738E+04 -4.63450E+00  2.19782E+04 -2.06875E+01  2.18834E+04  3.49553E+00  2.17617E+04 -7.02302E+00
  2.16841E+04 -1.11075E+01  2.15721E+04  4.76994E+00  2.14498E+04  1.80447E+01  2.13765E+04 -2.07529E+01
  2.12784E+04 -1.10977E+01  2.11842E+04 -1.65216E+01  2.10835E+04 -1.25169E+00  2.09635E+04  9.45354E+00
  2.08746E+04  1.35773E+01  2.07611E+04  2.32884E+01  2.06873E+04  1.04041E+01  2.05828E+04  1.38461E+01
  2.04758E+04 -1.31316E+01  2.03697E+04  2.10544E+01  2.03012E+04 -1.59193E+01  2.01924E+04  1.05762E+01
  2.01163E+04 -7.47338E+00  1.99806E+04 -2.29960E+01  1.99213E+04 -5.21636E+00  1.98271E+04 -2.26011E+01
  1.97249E+04 -1.03970E+01  1.96325E+04  8.75819E+00  1.95608E+04  1.14738E+01  1.94601E+04  2.21879E+01
  1.93622E+04  1.78894E+01  1.92850E+04 -1.83676E+01  1.91658E+04 -1.73490E+01  1.90669E+04  1.86795E+01
  1.89774E+04  1.38009E+01  1.89164E+04 -1.60292E+01  1.88283E+04  6.65964E+00  1.87483E+04 -3.93590E+00
  1.86183E+04  8.48895E+00  1.85557E+04  1.44613E+01  1.84762E+04  2.01363E+01  1.83915E+04 -1.25449E+01
  1.82974E+04 -2.23927E+01  1.82140E+04 -2.33718E+01  1.81301E+04 -1.06856E+00  1.80235E+04  1.96014E+01
  1.79717E+04  2.17245E+01  1.78499E+04 -8.72746E+00  1.77734E+04  2.21313E+01  1.77170E+04  1.72252E+01
  1.76059E+04  8.27562E-01  1.75440E+04 -1.96569E+01  1.74440E+04 -1.89223E+01  1.73515E+04 -2.25249E+01
  1.72693E+04 -1.58669E+01  1.71897E+04  3.54635E+00  1.71227E+04 -3.90019E+00  1.70271E+04 -9.67087E+00
  1.69386E+04  4.88295E+00  1.68935E+04  1.99791E+01  1.68197E+04 -4.16077E+00  1.67301E+04 -1.76616E+01
  1.66373E+04  2.24901E+01  1.65766E+04  1.14755E+01  1.64956E+04 -6.85158E+00  1.63944E+04  9.30933E+00
  1.63437E+04  1.34377E+01  1.62372E+04  3.94282E+00  1.61681E+04 -9.97776E-01  1.60969E+04  1.28581E+01
  1.60472E+04 -6.72389E+00  1.59627E+04 -1.61811E+01  1.58744E+04  7.16907E+00  1.57814E+04 -2.26821E+01
  1.57239E+04 -2.06772E+01  1.56748E+04  5.24840E-02  1.55848E+04 -8.77354E+00  1.55078E+04 -1.79982E+01
  1.54354E+04  1.41855E+01  1.53705E+04  1.97033E+01  1.53041E+04 -1.33770E+01  1.52372E+04 -2.23758E+01
  1.51488E+04 -2.42934E+00  1.50580E+04 -1.37125E+01  1.50139E+04  1.72104E+01  1.49194E+04 -2.10339E+01
  1.48704E+04  2.91868E+00  1.47932E+04  9.95067E+00  1.47339E+04  1.91371E+01  1.46586E+04  9.22585E+00
  1.45704E+04  1.62164E+01  1.45410E+04  8.85933E+00  1.44647E+04 -1.41220E+01  1.43986E+04 -6.86285E+00
  1.43056E+04  2.31080E+01  1.42549E+04 -1.97228E+01  1.41644E+04  5.07104E+00  1.41092E+04  1.59429E+00
  1.40443E+04 -2.10936E+01  1.40031E+04  2.80515E+00  1.39316E+04 -1.24470E+01  1.38393E+04 -5.64979E+00
  1.37747E+04  2.24979E+01  1.37392E+04  1.24458E+01  1.36445E+04 -1.97618E+01  1.35710E+04  9.28832E+00
  1.35162E+04  5.96832E+00  1.34652E+04  1.08393E+01  1.33787E+04  1.62006E+01  1.33258E+04  1.33935E+01
  1.32886E+04  1.48616E+01  1.32048E+04 -6.47734E-01  1.31464E+04 -1.46905E+01  1.31040E+04  2.00200E+01
  1.30160E+04  1.88711E+01  1.29831E+04 -2.64828E+00  1.29109E+04 -2.25062E+00  1.28370E+04  2.06389E+01
  1.28007E+04  4.17032E+00  1.27232E+04 -5.15403E+00  1.26460E+04 -4.70340E+00  1.26043E+04  9.86664E+00
  1.25360E+04 -2.08787E+01  1.24823E+04  2.23195E+01  1.24063E+04  2.16893E+01  1.23797E+04  1.37609E+01
  1.23304E+04  1.17497E+01  1.22624E+04 -1.52157E+01  1.22059E+04  2.46554E+00  1.21587E+04  2.29192E+00
  1.20844E+04  5.62918E-01  1.20255E+04  1.22275E+01  1.19652E+04  6.82033E+00  1.19307E+04 -2.17276E+01
  1.18731E+04 -1.37613E+01  1.17956E+04 -1.98979E+01  1.17412E+04  6.28455E+00  1.17103E+04  1.04822E+01
  1.16531E+04  1.51530E+01  1.15564E+04  9.54744E-02  1.15490E+04  1.38265E+01  1.14605E+04 -4.08361E+00
  1.14085E+04 -3.68661E+00  1.13425E+04  1.37963E+01  1.13267E+04  1.22233E+01  1.12430E+04 -2.28408E+01
  1.12213E+04  1.96842E+01  1.11467E+04 -1.17119E+01  1.11141E+04  2.18609E+01  1.10552E+04 -2.39360E+00
  1.09724E+04 -6.96420E+00  1.09575E+04  8.69037E+00  1.09149E+04 -2.15219E+01  1.08542E+04  4.14944E+00
  1.07901E+04 -2.24846E+01  1.07317E+04 -1.19258E-01  1.06787E+04 -7.16144E+00  1.06438E+04 -4.79387E+00
  1.06040E+04  1.69012E+01  1.05608E+04  1.55993E+00  1.04810E+04  8.88730E+00  1.04164E+04 -3.32061E+00
  1.03685E+04 -1.97597E+01  1.03408E+04  1.16372E+01  1.02925E+04  2.62035E+00  1.02317E+04 -1.78798E+01
  1.01990E+04  9.13790E-01  1.01594E+04  1.57439E+01  1.00804E+04 -9.14769E+00  1.00747E+04 -4.06536E-02
  1.00028E+04 -8.36106E+00  9.94332E+03 -8.59937E+00  9.92573E+03 -3.51761E+00  9.86741E+03 -2.22673E+00
  9.84158E+03 -8.01402E+00  9.77912E+03 -1.04974E+01  9.73650E+03  1.98340E-02  9.67368E+03  1.68409E+01
  9.64635E+03 -4.57946E+00  9.58548E+03  1.59388E+01  9.56692E+03 -2.04825E+01  9.49067E+03  1.46631E+01
  9.47329E+03  1.25035E+00  9.39606E+03  1.78909E+00  9.37222E+03 -2.03751E+01  9.31150E+03  5.92592E+00
  9.25866E+03 -1.42548E+01  9.22961E+03 -1.62800E+01  9.18374E+03  1.36824E+01  9.16609E+03 -2.18151E+01
  9.11785E+03  4.39178E+00  9.07060E+03 -9.80732E+00  9.02903E+03  1.92004E+01  8.96514E+03  1.97917E+01
  8.95055E+03  1.72745E+01  8.90115E+03 -1.21326E+01  8.85452E+03  2.31415E+01  8.79484E+03 -2.52280E+00
  8.77846E+03  1.88361E+01  8.75100E+03  1.27783E+01  8.68714E+03  6.46137E+00  8.62885E+03 -1.75199E+00
  8.61857E+03  1.32890E+01  8.56077E+03 -7.33830E+00  8.51682E+03 -1.11786E+01  8.48831E+03  4.86160E+00
  8.43947E+03  2.00217E+01  8.41460E+03  3.24618E+00  8.38457E+03  1.57601E+01  8.34584E+03 -2.24128E+01
