 $NMID ID='dataset8', FMTDAT='(8E13.5)'
 TRAMP=1, VOLUME=1 $END
  4.99286E+04  1.09514E+01  4.97025E+04 -6.29331E+00  4.94515E+04  2.04415E+00  4.92402E+04 -1.14568E+01
  4.90091E+04 -6.41960E+00  4.87753E+04  4.62854E+00  4.85397E+04  7.69868E+00  4.83219E+04 -3.12974E+00
  4.80821E+04 -6.90888E+00  4.78692E+04 -2.00907E+00  4.76305E+04  8.74803E+00  4.74135E+04 -9.08014E+00
  4.71838E+04 -9.15351E+00  4.69551E+04 -1.04500E+01  4.67550E+04 -1.14090E+01  4.65258E+04 -5.89026E+00
  4.63059E+04  3.71637E+00  4.60968E+04  9.19172E-01  4.58600E+04  1.11358E+01  4.56572E+04 -9.08125E-01
  4.54403E+04  7.53830E+00  4.52260E+04 -7.26457E+00  4.50191E+04  8.02747E+00  4.48007E+04 -3.26926E+00
  4.45920E+04 -2.82523E+00  4.43881E+04  4.28914E+00  4.41673E+04  2.97077E+00  4.39589E+04 -8.82361E+00
  4.37551E+04 -6.94672E+00  4.35444E+04 -2.66482E+00  4.33602E+04  5.50630E+00  4.31524E+04  1.02745E+01
  4.29324E+04  4.60339E+00  4.27458E+04 -8.39812E+00  4.25374E+04  2.72062E-01  4.23326E+04  1.42325E+00
  4.21378E+04  4.69025E+00  4.19467E+04 -5.97149E+00  4.17479E+04 -6.23872E+00  4.15581E+04 -6.20530E+00
  4.13460E+04 -7.89043E+00  4.11698E+04 -1.05338E+00  4.09596E+04  8.01677E+00  4.07707E+04 -2.16376E+00
  4.05844E+04 -9.28254E+00  4.03827E+04 -4.33519E+00  4.01967E+04  2.75625E+00  4.00129E+04 -6.93008E+00
  3.98221E+04  6.67912E+00  3.96253E+04 -9.89109E+00  3.94396E+04 -9.34472E+00  3.92751E+04 -3.02466E+00
  3.90893E+04 -9.10740E+00  3.88893E+04  9.22568E+00  3.87043E+04 -3.24854E+00  3.85196E+04  7.04727E+00
  3.83403E+04 -3.10269E+00  3.81619E+04 -9.00623E-01  3.79839E+04  5.79169E+00  3.78168E+04 -5.65118E+00
  3.76409E+04  9.74589E+00  3.74661E+04  9.18547E+00  3.72693E+04  8.07156E+00  3.71167E+04 -2.48668E-01
  3.69339E+04  4.86454E-01  3.67547E+04 -8.20438E+00  3.65895E+04 -3.00813E+00  3.64209E+04 -3.93225E+00
  3.62356E+04  1.52021E+00  3.60627E+04 -1.15858E+01  3.59020E+04 -2.01979E-01  3.57250E+04 -5.66481E+00
  3.55579E+04 -7.31952E+00  3.54023E+04  3.79596E+00  3.52374E+04 -1.14263E+01  3.50571E+04  6.70139E+00
  3.48995E+04 -2.46047E+00  3.47376E+04  3.02467E+00  3.45678E+04  9.36305E+00  3.44035E+04 -1.04547E+01
  3.42531E+04 -9.61721E+00  3.40962E+04  8.62631E+00  3.39280E+04 -4.56744E+00  3.37776E+04  1.02647E+01
  3.36164E+04 -8.29069E-01  3.34528E+04  2.85895E+00  3.32865E+04 -1.08915E+01  3.31369E+04  4.61647E+00
  3.29809E+04 -1.81844E+00  3.28341E+04  1.15164E+01  3.26809E+04  9.54332E+00  3.25146E+04 -1.54407E+00
  3.23630E+04 -8.44550E+00  3.22071E+04 -8.15049E+00  3.20722E+04 -6.12963E+00  3.19021E+04 -6.84052E+00
  3.17719E+04 -3.19361E+00  3.16172E+04 -4.95002E+00  3.14528E+04 -9.29864E+00  3.13089E+04 -7.76427E-01
  3.11696E+04  9.37089E+00  3.10148E+04  6.85404E+00  3.08683E+04  8.57434E+00  3.07195E+04 -2.52948E+00
  3.05769E+04  2.46421E+00  3.04497E+04  6.44711E+00  3.02980E+04 -7.06089E+00  3.01530E+04  2.86833E+00
  3.00069E+04 -4.16781E+00  2.98827E+04 -4.91909E+00  2.97369E+04 -4.63950E+00  2.95968E+04  8.44184E+00
  2.94462E+04 -5.51660E-01  2.93061E+04  1.43894E+00  2.91899E+04 -9.56427E+00  2.90325E+04  9.22601E+00
  2.89075E+04  8.14867E+00  2.87646E+04 -1.11125E+01  2.86390E+04 -2.56059E+00  2.84878E+04  9.14135E+00
  2.83619E+04  1.05666E+01  2.82213E+04 -9.19665E+00  2.80881E+04  7.65435E+00  2.79609E+04  3.49777E-01
  2.78242E+04 -7.24783E+00  2.76992E+04  9.83414E+00  2.75630E+04 -6.52364E+00  2.74529E+04  8.36623E+00
  2.73095E+04  6.41523E+00  2.71876E+04  6.58341E+00  2.70584E+04  8.16733E+00  2.69355E+04  4.44100E-01
  2.68031E+04  8.17787E+00  2.66754E+04 -4.99017E+00  2.65434E+04 -2.39455E+00  2.64290E+04 -6.96498E+00
  2.63123E+04  5.89007E+00  2.61782E+04 -1.03429E+01  2.60668E+04 -4.92713E+00  2.59247E+04  6.33902E+00
  2.58132E+04  1.76277E+00  2.56895E+04 -1.13849E+01  2.55723E+04  9.96409E+00  2.54601E+04  1.12354E+01
  2.53257E+04 -7.98228E+00  2.52196E+04 -1.05286E+01  2.50936E+04  2.22991E+00  2.49854E+04 -8.76776E+00
  2.48555E+04  5.24741E+00  2.47377E+04  6.33312E+00  2.46228E+04  8.20685E-01  2.44994E+04  8.40980E-01
  2.43853E+04  1.07665E+01  2.42796E+04  2.70818E+00  2.41679E+04  4.04000E+00  2.40421E+04 -4.51874E+00
  2.39321E+04 -5.68402E+00  2.38314E+04 -1.07178E+01  2.37114E+04  1.09271E+01  2.36063E+04 -1.14544E+01
  2.34979E+04  6.38933E+00  2.33864E+04 -1.13190E+01  2.32615E+04 -1.09158E+01  2.31520E+04  6.67842E+00
  2.30572E+04 -4.60022E+00  2.29427E+04  6.88162E+00  2.28270E+04 -6.37007E+00  2.27250E+04 -5.77645E+00
  2.26343E+04  9.22702E+00  2.25164E+04 -1.16127E+01  2.24170E+04  1.09915E+01  2.23004E+04  3.46979E+00
  2.21918E+04  4.48616E+00  2.21017E+04 -4.96354E+00  2.19818E+04  8.54583E+00  2.18841E+04 -4.78563E+00
  2.17974E+04  5.87485E+00  2.16756E+04 -9.81605E+00  2.15823E+04  4.82123E+00  2.14837E+04  6.67253E+00
  2.13901E+04 -2.13000E+00  2.12765E+04  8.71950E+00  2.11707E+04 -3.85218E+00  2.10799E+04  2.13840E+00
  2.09809E+04 -9.32912E+00  2.08859E+04 -1.08361E+01  2.07805E+04 -5.47902E+00  2.06760E+04  9.15095E+00
  2.05941E+04 -9.56003E+00  2.04852E+04  7.24930E+00  2.03959E+04  1.00193E+01  2.02944E+04 -2.88784E+00
  2.02153E+04  1.04733E+01  2.01135E+04 -4.56193E+00  2.00223E+04  6.62354E+00  1.99297E+04  8.54544E+00
  1.98282E+04  5.11002E+00  1.97395E+04 -1.16201E+01  1.96498E+04  8.53809E+00  1.95427E+04  1.11947E+01
  1.94490E+04 -6.47409E+00  1.93731E+04  1.94557E+00  1.92845E+04  5.56211E+00  1.91906E+04 -2.14698E+00
  1.90846E+04 -6.63542E+00  1.90107E+04 -1.08255E+01  1.89038E+04  7.50812E+00  1.88221E+04  1.39590E+00
  1.87426E+04  7.98495E+00  1.86513E+04  4.09967E+00  1.85599E+04  1.38701E+00  1.84641E+04  4.44210E-01
  1.83856E+04 -6.97635E+00  1.83033E+04 -1.14584E+01  1.82096E+04  6.77397E+00  1.81381E+04 -9.23253E+00
  1.80407E+04  2.47080E+00  1.79470E+04  2.03946E+00  1.78853E+04  3.80004E+00  1.77835E+04  8.69846E+00
  1.77106E+04  2.48730E+00  1.76161E+04  8.69274E+00  1.75446E+04 -1.05766E+01  1.74596E+04 -3.91853E+00
  1.73643E+04  4.24283E+00  1.73022E+04 -2.60878E+00  1.72217E+04 -4.54250E+00  1.71320E+04 -9.73320E+00
  1.70568E+04  2.30232E+00  1.69697E+04  6.01740E+00  1.68799E+04  4.58048E+00  1.68024E+04 -2.00521E+00
  1.67372E+04  2.55578E+00  1.66615E+04  1.01806E+01  1.65735E+04  6.85754E+00  1.64882E+04  4.32037E+00
  1.64168E+04  1.04849E+01  1.63387E+04  1.08724E+01  1.62668E+04 -4.23348E+00  1.61953E+04  2.58694E+00
  1.61160E+04 -3.42627E+00  1.60322E+04  7.06092E+00  1.59513E+04  8.39037E-01  1.58885E+04  9.53394E+00
  1.58154E+04  9.14660E+00  1.57272E+04 -8.24449E-01  1.56635E+04  8.46168E+00  1.55887E+04 -5.97402E+00
  1.55219E+04  7.79266E+00  1.54339E+04 -9.39504E+00  1.53616E+04 -6.76887E+00  1.53003E+04  7.49797E+00
  1.52298E+04  9.03283E+00  1.51457E+04 -1.82304E+00  1.50814E+04 -5.09378E+00  1.50203E+04 -8.96128E+00
  1.49537E+04  3.22474E+00  1.48711E+04  2.13438E+00  1.48083E+04  1.08462E+01  1.47294E+04  1.15889E+01
  1.46598E+04 -3.82117E+00  1.45950E+04 -4.70862E+00  1.45257E+04  2.24391E+00  1.44591E+04  1.04168E+01
  1.43980E+04 -2.44565E+00  1.43346E+04 -6.93484E+00  1.42511E+04 -1.09768E+01  1.41779E+04  7.98351E+00
  1.41275E+04 -1.16785E+01  1.40637E+04 -3.04425E+00  1.39784E+04 -4.55186E+00  1.39259E+04 -3.12858E+00
  1.38581E+04  2.36631E+00  1.38015E+04  1.10915E+01  1.37335E+04  5.11311E-01  1.36595E+04  3.89017E+00
  1.35988E+04  1.12666E+01  1.35389E+04  2.65465E+00  1.34653E+04 -8.73851E+00  1.34186E+04  4.09280E+00
  1.33379E+04 -2.71201E+00  1.32904E+04  8.90022E+00  1.32194E+04 -1.05474E+01  1.31601E+04  9.24147E+00
  1.31061E+04 -9.63859E+00  1.30432E+04 -2.13768E+00  1.29650E+04 -1.88456E+00  1.29141E+04 -2.17737E+00
  1.28411E+04 -9.41172E+00  1.28012E+04 -8.28154E+00  1.27264E+04  8.58647E+00  1.26755E+04  6.04376E+00
  1.26208E+04  1.03494E+01  1.25554E+04 -5.51160E+00  1.24868E+04  7.44195E+00  1.24276E+04 -4.80069E+00
  1.23789E+04 -8.07396E+00  1.23170E+04  7.21527E+00  1.22614E+04  9.89111E+00  1.22084E+04 -9.85285E+00
  1.21347E+04 -1.91913E+00  1.20899E+04  8.59911E+00  1.20204E+04  6.26455E+00  1.19662E+04  8.92723E+00
  1.19131E+04 -4.94594E+00  1.18525E+04  5.53903E-01  1.18136E+04 -9.62237E+00  1.17616E+04 -6.71519E+00
  1.16939E+04  7.51921E+00  1.16457E+04  1.23973E+00  1.15783E+04 -7.62606E+00  1.15342E+04 -1.00434E+01
  1.14748E+04  8.52751E-01  1.14256E+04 -7.88721E+00  1.13652E+04 -4.53580E+00  1.13188E+04 -3.99516E+00
  1.12663E+04  4.18328E+00  1.12173E+04 -1.11521E+01  1.11613E+04  1.60268E+00  1.11026E+04  1.05688E+01
  1.10565E+04  5.14655E+00  1.09990E+04  3.99053E+00  1.09577E+04 -2.62358E+00  1.08865E+04 -6.54270E+00
  1.08565E+04 -9.28759E+00  1.07993E+04 -1.49656E+00  1.07538E+04 -7.00462E+00  1.06944E+04  6.80501E+00
  1.06409E+04  7.76000E+00  1.05828E+04 -4.78682E+00  1.05378E+04  1.12357E+01  1.04965E+04 -3.95843E+00
  1.04446E+04  7.43559E+00  1.03852E+04 -1.01236E+01  1.03441E+04  7.45635E-01  1.02987E+04 -5.81261E+00
  1.02427E+04  6.50566E+00  1.02095E+04  9.95462E+00  1.01529E+04  3.30597E+00  1.01149E+04 -7.22405E+00
  1.00668E+04 -4.55609E-01  1.00016E+04  2.17463E+00  9.96024E+03 -7.30687E-02  9.92767E+03  4.87413E+00
  9.88203E+03  1.12559E+01  9.82751E+03  6.22037E+00  9.78468E+03  2.93731E-01  9.74199E+03  4.84561E+00
  9.68008E+03 -9.17605E+00  9.65122E+03 -1.52477E+00  9.58829E+03 -8.73260E+00  9.54598E+03  1.13357E+01
  9.49664E+03  1.40156E+00  9.47017E+03  6.85924E+00  9.41769E+03 -9.45683E+00  9.36214E+03  4.71467E+00
  9.33670E+03  3.39801E+00  9.28666E+03 -5.95697E+00  9.23095E+03  4.39828E-01  9.20878E+03 -7.36243E-01
  9.14680E+03  1.28453E+00  9.10113E+03  9.22049E+00  9.07816E+03  8.59390E+00  9.03128E+03 -5.90386E+00
  8.98871E+03 -1.15995E+01  8.94637E+03 -7.82349E+00  8.89018E+03 -1.50999E+00  8.85541E+03  3.16273E+00
  8.81297E+03 -9.71487E+00  8.77585E+03 -8.97504E+00  8.73658E+03 -3.31704E+00  8.68158E+03 -2.19357E+00
  8.65282E+03 -8.04719E+00  8.60593E+03 -2.09411E+00  8.57492E+03  1.04390E+01  8.53724E+03 -1.52468E+00
