 $NMID ID='dataset17', FMTDAT='(8E13.5)'
 TRAMP=1, VOLUME=1 $END
  4.99363E+04 -5.79282E+00  4.97058E+04  5.25422E+00  4.95069E+04 -1.11929E+01  4.91769E+04 -4.45546E+01
  4.89903E+04  5.46533E+01  4.87333E+04 -1.07755E+01  4.85565E+04  2.32422E+01  4.83186E+04 -5.46341E+01
  4.81047E+04 -2.54252E+01  4.78849E+04  6.03563E+01  4.76168E+04  7.31757E+00  4.74180E+04 -5.81571E+00
  4.72421E+04  2.40446E+01  4.70012E+04  3.91870E+01  4.67544E+04 -2.34462E+01  4.65819E+04 -3.26328E+01
  4.63309E+04  2.43630E+01  4.61375E+04  4.18389E+00  4.58083E+04  3.11062E+01  4.56793E+04 -2.23686E+01
  4.55013E+04  5.90373E+01  4.52802E+04 -5.70986E+01  4.50762E+04 -2.27050E+01  4.48144E+04  1.12665E+01
  4.45580E+04 -2.95089E+01  4.44370E+04 -3.07975E+01  4.42323E+04  1.60654E+01  4.39897E+04 -2.98669E+00
  4.37250E+04  2.06398E+01  4.35588E+04 -4.89044E+01  4.33113E+04  4.98797E+01  4.31356E+04 -2.98924E+01
  4.28948E+04 -3.34073E+01  4.27300E+04  5.20561E+01  4.25900E+04 -1.60503E+01  4.22903E+04 -5.92100E+01
  4.21677E+04 -3.41816E+01  4.19297E+04  3.13577E+01  4.17098E+04 -2.20723E+01  4.16083E+04 -5.00128E-01
  4.13566E+04 -6.08196E+01  4.10989E+04 -3.11256E+01  4.09332E+04 -5.82208E+01  4.08171E+04  5.70032E+01
  4.06346E+04  5.80049E+01  4.04435E+04  2.35972E+01  4.02320E+04  4.08868E+01  3.99703E+04 -1.37573E+01
  3.97596E+04  1.42379E+01  3.96827E+04 -2.89022E+01  3.94962E+04 -1.43643E+01  3.92650E+04  4.35333E+01
  3.90342E+04  2.75420E+01  3.89426E+04  5.33693E+01  3.86804E+04 -6.39150E+00  3.85722E+04  3.04852E+01
  3.83567E+04  1.13248E+01  3.81924E+04  1.79243E+01  3.79756E+04 -1.12340E+01  3.77794E+04  6.40971E+01
  3.76030E+04  1.18788E+00  3.74949E+04 -1.70694E+00  3.72849E+04  6.35182E+01  3.70846E+04  9.50425E+00
  3.68769E+04 -1.14161E+00  3.67231E+04 -4.57497E+01  3.65278E+04  3.60930E+01  3.64475E+04  4.76235E+01
  3.63041E+04 -4.03536E+01  3.60640E+04  3.59618E+01  3.58462E+04  1.73405E+01  3.57285E+04  4.89825E+01
  3.55529E+04 -4.55087E+01  3.54005E+04  2.83370E+01  3.51772E+04  5.95914E+01  3.50094E+04  4.29759E+01
  3.49512E+04  1.93610E+01  3.47325E+04  5.28321E+01  3.45161E+04  3.56416E+01  3.44524E+04 -1.03905E+01
  3.42049E+04  4.76412E+01  3.40798E+04 -5.07066E+01  3.39172E+04  5.52434E+01  3.37324E+04 -3.79737E+01
  3.35992E+04  3.62343E+01  3.35044E+04 -1.29189E+01  3.32930E+04 -4.17821E+01  3.31998E+04 -1.46812E+01
  3.30163E+04 -4.33792E+01  3.28729E+04 -4.06860E+01  3.26892E+04  4.47932E+01  3.25230E+04 -1.94821E+01
  3.23464E+04 -4.39274E+01  3.21528E+04 -4.29117E+01  3.20231E+04  4.00808E+01  3.18738E+04 -2.61999E+00
  3.18047E+04  3.74033E+01  3.16475E+04 -5.51499E+01  3.14006E+04 -1.00380E+01  3.13356E+04 -4.45256E+01
  3.12325E+04  2.05065E+01  3.10615E+04 -1.94447E-01  3.09256E+04  6.22526E+01  3.07519E+04 -1.76663E+01
  3.05486E+04 -3.70030E+01  3.03969E+04 -3.13736E+01  3.03635E+04 -2.29292E+01  3.01863E+04 -5.55598E+01
  2.99683E+04  3.15195E+00  2.99238E+04 -3.71812E+00  2.96867E+04 -2.17864E+01  2.96091E+04  3.03503E+01
  2.94565E+04  1.08926E+01  2.93509E+04 -2.58687E+01  2.91829E+04  4.10931E+01  2.90027E+04  5.22906E+01
  2.89339E+04  7.31375E+00  2.87704E+04 -5.79148E+01  2.86220E+04 -3.10383E+00  2.85519E+04 -5.03587E+01
  2.83721E+04 -5.11593E+01  2.81941E+04  2.62598E+01  2.80880E+04  2.46602E+01  2.79995E+04  4.74286E+01
  2.77715E+04  6.36098E+01  2.76859E+04 -2.91827E+01  2.75937E+04 -4.70583E+01  2.73867E+04  4.78734E+00
  2.73018E+04 -2.43517E+01  2.71436E+04 -4.80109E+01  2.70766E+04  5.50467E+01  2.68844E+04 -2.34939E+01
  2.68292E+04 -2.70288E+01  2.66166E+04  8.10640E+00  2.66160E+04  6.14737E+01  2.64644E+04  3.21689E+01
  2.62931E+04  2.14318E+00  2.61567E+04  3.74872E+01  2.60929E+04 -2.66475E+01  2.59996E+04 -4.53379E+00
  2.58763E+04 -3.19799E+01  2.57206E+04  3.65767E+01  2.55258E+04  6.05167E+01  2.54114E+04 -5.57876E+01
  2.53362E+04  1.68967E+01  2.52282E+04  2.38537E+01  2.50983E+04  5.12577E+01  2.49731E+04  5.66519E+01
  2.48795E+04  3.44926E+01  2.47827E+04  3.58524E+01  2.45660E+04 -5.07868E+01  2.45127E+04  5.23454E+01
  2.44069E+04  4.13176E+01  2.42668E+04 -2.53470E+01  2.41455E+04 -2.77385E+00  2.39897E+04 -1.15701E+01
  2.39012E+04  2.33019E+01  2.38723E+04  5.57798E+01  2.37114E+04  9.35415E+00  2.36284E+04  3.25893E+00
  2.35091E+04  4.04949E+01  2.34002E+04 -6.17426E+01  2.32334E+04 -2.60051E+01  2.31177E+04  2.97826E+00
  2.30726E+04  4.70812E+01  2.29846E+04  3.17358E+00  2.28098E+04  1.17393E+01  2.27208E+04 -8.29655E+00
  2.25716E+04  4.48251E+01  2.25109E+04  3.33223E+01  2.24226E+04  1.97161E+01  2.22729E+04 -2.29383E+01
  2.22507E+04  3.10693E+01  2.20962E+04  5.48110E+01  2.19318E+04 -4.57464E+01  2.18494E+04  5.51189E+01
  2.17860E+04  3.01818E+01  2.16223E+04  1.74830E+01  2.16072E+04 -2.56545E+01  2.14956E+04 -5.49381E+01
  2.13810E+04  3.43015E+01  2.12901E+04  8.06098E+00  2.12243E+04 -3.67339E+01  2.10938E+04 -5.33138E+01
  2.09975E+04  2.18151E+01  2.08385E+04  5.65964E+00  2.07858E+04 -4.00272E+01  2.06592E+04  3.76393E+01
  2.05504E+04  3.51619E+01  2.04490E+04 -6.37882E+01  2.03640E+04  2.71889E+01  2.03575E+04 -4.66030E+01
  2.01808E+04  1.56907E+01  2.00572E+04  4.44305E+01  1.99651E+04  2.37185E+01  1.98708E+04  3.11435E+01
  1.97910E+04  1.10041E+01  1.96903E+04 -3.32540E+00  1.96487E+04  5.63967E+01  1.95527E+04  1.79063E+01
  1.94896E+04 -2.56828E+01  1.94256E+04  5.29017E+01  1.92330E+04  4.86931E+00  1.91984E+04  2.59109E+01
  1.91467E+04  5.15370E+01  1.89801E+04 -5.67046E+01  1.88806E+04  2.48930E+01  1.88088E+04 -4.69681E+00
  1.87648E+04  6.02068E+01  1.86875E+04 -2.27411E+01  1.85820E+04  2.39391E+01  1.85225E+04 -3.34640E+01
  1.84011E+04 -2.24588E+00  1.82682E+04  4.96109E+01  1.82219E+04 -6.16430E+01  1.80650E+04 -5.78025E+01
  1.80577E+04  6.16168E+00  1.79160E+04  1.80493E+01  1.78645E+04  1.54290E+01  1.77938E+04  2.81742E+01
  1.76612E+04  5.79012E+01  1.75946E+04 -5.35905E+01  1.75321E+04  1.36388E+01  1.74627E+04  9.34227E+00
  1.73758E+04 -5.04109E+01  1.72397E+04  5.28845E+01  1.72455E+04 -1.05965E+01  1.70990E+04 -4.17977E+01
  1.70708E+04  1.56595E+01  1.69959E+04  5.54027E+01  1.68822E+04  6.18105E+01  1.67505E+04  5.00188E+01
  1.67901E+04 -1.27141E+01  1.66895E+04 -4.99857E+01  1.65815E+04  4.20287E+01  1.65259E+04  5.90103E+01
  1.64059E+04  1.99195E+01  1.63666E+04 -1.82501E+01  1.62221E+04  1.02410E+01  1.62243E+04 -4.48347E+01
  1.60668E+04 -1.52166E+00  1.60205E+04  1.24361E+01  1.59283E+04 -1.58834E+01  1.59020E+04 -3.01455E+01
  1.58213E+04 -4.41807E+01  1.57351E+04 -4.10762E+01  1.56143E+04 -5.56809E+01  1.55499E+04  5.14745E+01
  1.54796E+04  3.11903E+01  1.54574E+04 -8.78560E+00  1.53105E+04  4.92295E+01  1.52825E+04 -2.58549E+01
  1.52274E+04  4.79013E+01  1.51474E+04  6.29437E+01  1.51252E+04  3.46887E+01  1.49774E+04  5.39557E+00
  1.49900E+04 -6.29079E+01  1.48795E+04 -1.84218E+01  1.47815E+04 -1.81584E+01  1.47260E+04  1.87256E+01
  1.46933E+04 -2.11183E+00  1.45686E+04  5.56610E+01  1.45567E+04  6.52810E+00  1.45180E+04 -4.23918E+01
  1.44001E+04  1.42184E+01  1.43047E+04 -3.10633E+01  1.42280E+04 -4.23115E+01  1.41931E+04  6.28622E+01
  1.41119E+04 -5.25385E+01  1.39922E+04 -1.82380E+01  1.40348E+04  2.80258E+01  1.39759E+04  1.88419E+01
  1.38980E+04 -5.86671E+01  1.38143E+04  5.73513E+01  1.37136E+04 -6.69806E+00  1.37124E+04  1.10620E+01
  1.36144E+04  4.68676E+01  1.35714E+04 -2.85770E+01  1.34185E+04 -1.45633E+01  1.34204E+04 -9.54401E+00
  1.33890E+04  5.45076E+01  1.33252E+04  2.79180E+01  1.31854E+04  4.63265E+01  1.31641E+04  1.86730E+01
  1.30720E+04 -3.78529E+01  1.30800E+04 -2.38599E+01  1.30053E+04  1.43448E+01  1.29239E+04  4.59968E+01
  1.28990E+04 -3.82988E+00  1.28040E+04  2.12487E+01  1.27736E+04  8.50992E+00  1.26467E+04 -2.26360E+01
  1.25512E+04 -5.83270E+00  1.25278E+04 -5.95426E+01  1.24504E+04 -4.04840E+01  1.24819E+04  4.02345E+01
  1.23534E+04  3.05147E+01  1.22917E+04 -6.35586E+01  1.22078E+04 -2.43917E+01  1.22459E+04  4.13277E-01
  1.21843E+04  5.84787E+01  1.21443E+04 -5.98586E+01  1.19723E+04 -1.17601E+01  1.19660E+04  4.29184E+01
  1.18967E+04 -5.81234E+00  1.18920E+04 -1.22676E+01  1.18630E+04 -5.26589E+01  1.16980E+04  5.10462E+00
  1.16434E+04 -5.68806E+01  1.16431E+04 -1.61646E+01  1.15950E+04  5.05601E+01  1.15623E+04  4.05578E+01
  1.15374E+04 -5.24039E+01  1.14662E+04 -6.06714E+01  1.14004E+04  6.13593E+00  1.13378E+04 -7.11622E+00
  1.12893E+04  5.70022E+00  1.11851E+04  5.52143E+01  1.11363E+04 -2.90200E+01  1.11444E+04 -2.00924E+00
  1.10315E+04  2.38934E+01  1.10157E+04 -1.73580E+01  1.09607E+04  5.25771E+00  1.08407E+04 -4.66957E+01
  1.08677E+04  4.81973E+01  1.07806E+04 -4.30878E+01  1.07357E+04 -7.79280E+00  1.06624E+04  3.44634E+01
  1.06974E+04 -4.07850E+01  1.05821E+04 -5.30039E+00  1.05303E+04 -2.21275E+01  1.04934E+04 -3.71671E+01
  1.05038E+04  2.82422E+01  1.03974E+04  1.38126E+00  1.02841E+04 -4.51347E+01  1.02518E+04 -6.09960E+01
  1.02409E+04  4.68696E+01  1.01544E+04 -2.01143E+01  1.01111E+04  2.40342E+01  1.00511E+04  8.64087E+00
  1.00141E+04  4.14253E+01  9.95706E+03  3.64307E+01  9.91696E+03 -3.42230E+01  9.91012E+03  5.82985E+01
  9.87516E+03  1.10694E+01  9.81075E+03  2.64245E+01  9.80948E+03 -5.84720E+01  9.72732E+03 -6.62261E+00
  9.67735E+03  2.83189E+01  9.59415E+03 -8.15903E+00  9.62419E+03 -6.31303E+01  9.54187E+03 -3.34000E+01
  9.47512E+03  3.99336E+01  9.49817E+03 -4.57610E-01  9.47641E+03  1.10280E+01  9.35327E+03 -5.79611E+01
  9.29874E+03  1.54644E+01  9.27873E+03  6.18117E+01  9.26668E+03 -2.90737E+01  9.16607E+03 -2.93965E+01
  9.14457E+03 -1.36242E+01  9.14262E+03 -1.34533E+01  9.13052E+03  5.59138E+01  9.05327E+03 -3.14766E+01
  8.95452E+03  2.78299E+01  8.93747E+03 -4.15549E+01  8.93687E+03  2.28993E+01  8.88974E+03  1.67803E+01
  8.75122E+03 -3.61442E+01  8.74154E+03  3.83056E+01  8.77570E+03  2.14542E+01  8.70494E+03 -4.71277E+01
  8.62005E+03  2.20568E+01  8.65537E+03  3.51967E+01  8.60543E+03 -3.15829E+01  8.47686E+03 -2.45510E+01
