 $NMID ID='dataset16', FMTDAT='(8E13.5)'
 TRAMP=1, VOLUME=1 $END
  4.98790E+04  2.50126E+01  4.96891E+04 -5.20128E+01  4.94834E+04  3.37046E+01  4.92594E+04  3.35903E+01
  4.90387E+04 -3.65368E+01  4.87492E+04 -3.78830E+01  4.85355E+04  4.12860E+01  4.83273E+04 -9.52111E+00
  4.81419E+04 -2.53104E+01  4.79210E+04 -6.11559E+01  4.76386E+04  3.65130E+01  4.73467E+04  1.75892E+01
  4.71988E+04  4.40815E+01  4.69562E+04  4.10158E+01  4.66898E+04  1.09079E+01  4.65230E+04  4.47476E+00
  4.63545E+04  5.48866E+01  4.60587E+04 -4.41705E+01  4.58092E+04  3.26698E+01  4.57038E+04 -5.85490E+01
  4.54260E+04 -5.51207E+01  4.52500E+04 -3.95731E+00  4.50760E+04  3.87497E+01  4.48416E+04  5.42019E+01
  4.45973E+04 -3.11433E+01  4.44057E+04  2.00270E+01  4.42268E+04  4.04797E+01  4.39796E+04 -4.55388E+01
  4.37784E+04  6.40908E+01  4.35431E+04  5.41315E+01  4.34102E+04  3.85416E+01  4.31207E+04 -5.94489E+01
  4.29575E+04  6.13870E+01  4.26777E+04 -1.40528E+01  4.24961E+04 -3.30104E+01  4.23075E+04 -5.78369E+01
  4.20951E+04  2.44113E+01  4.19142E+04  5.23841E+01  4.17889E+04 -2.60158E+01  4.15544E+04  4.02601E+01
  4.13067E+04  1.47956E+01  4.11042E+04 -1.17792E+00  4.09632E+04  3.99325E+01  4.08064E+04 -1.07672E+01
  4.06395E+04 -6.09009E+01  4.03586E+04 -1.93954E+01  4.02298E+04 -3.65869E+01  3.99624E+04  4.10088E+01
  3.97980E+04 -2.66048E+01  3.96294E+04 -2.09469E+01  3.94075E+04  9.29276E+00  3.93092E+04 -3.89437E+01
  3.90245E+04  6.17339E+01  3.88682E+04  2.20911E+01  3.87068E+04  5.55298E+01  3.84926E+04 -2.87929E+00
  3.83168E+04  4.64542E+01  3.81545E+04 -6.17125E+00  3.80028E+04 -5.64265E+01  3.77829E+04  6.15587E+01
  3.76781E+04 -3.75675E+01  3.74301E+04  1.21880E+01  3.73197E+04  4.69192E+01  3.70761E+04 -2.99683E+01
  3.69771E+04  4.27946E+01  3.67434E+04  3.61767E+01  3.65510E+04 -4.10949E+01  3.64375E+04  5.38613E+01
  3.62489E+04  1.23530E+01  3.60965E+04  3.57936E+01  3.59644E+04  6.58332E+00  3.57782E+04 -1.66741E+01
  3.56194E+04  1.50809E+01  3.54491E+04  2.26950E+01  3.52008E+04  1.96013E+01  3.50346E+04  3.59294E+01
  3.48901E+04 -6.23952E+01  3.47582E+04  3.03476E+01  3.46135E+04 -3.60193E+01  3.44586E+04 -5.61161E+01
  3.43041E+04 -2.10603E+01  3.40949E+04  6.12373E+01  3.38740E+04  2.88278E+01  3.37085E+04 -1.86811E+01
  3.36351E+04 -5.99609E+01  3.34605E+04  8.55619E+00  3.32688E+04 -2.14078E+01  3.31158E+04  1.23068E+01
  3.30185E+04 -3.08972E+00  3.27925E+04  3.33294E+01  3.26181E+04 -3.80164E+01  3.24609E+04 -5.41807E+01
  3.23314E+04 -4.55239E+01  3.22057E+04  3.58418E+01  3.20566E+04 -4.75266E+01  3.19470E+04 -2.20707E+01
  3.17381E+04 -3.12285E+01  3.16146E+04  4.74694E+01  3.15068E+04  6.06932E+00  3.13348E+04  4.81044E+01
  3.11608E+04 -6.00286E+01  3.10318E+04 -4.32399E+01  3.09315E+04 -2.13574E+01  3.07558E+04  7.80436E+00
  3.05892E+04 -5.44538E+01  3.04573E+04  5.12111E+01  3.02619E+04  5.01296E+01  3.01455E+04 -2.73074E+01
  3.00683E+04 -6.21666E+01  2.98945E+04  1.47292E+00  2.97003E+04  8.41958E+00  2.95634E+04  5.92484E+01
  2.94448E+04  2.21816E+01  2.93066E+04  4.45272E+01  2.91925E+04 -5.59963E+01  2.90215E+04 -2.79929E+01
  2.89476E+04 -3.99609E+00  2.87892E+04 -5.59436E+00  2.86340E+04 -1.35279E+01  2.85311E+04 -4.76667E+01
  2.83688E+04  3.16840E+01  2.81687E+04  1.15215E+01  2.80851E+04 -1.83930E+00  2.79890E+04  6.66174E+00
  2.78349E+04 -6.22706E+01  2.77539E+04 -3.54776E+01  2.75230E+04  4.00378E+01  2.75025E+04 -6.09527E+01
  2.73126E+04  2.59119E+01  2.71563E+04 -1.45793E+01  2.70605E+04  4.79526E+01  2.69172E+04  4.48846E+01
  2.67590E+04  2.64080E+01  2.67323E+04  4.74811E+01  2.65600E+04 -3.78431E+01  2.64791E+04 -4.84457E+00
  2.62599E+04 -1.45192E+01  2.61297E+04 -4.50733E+00  2.61100E+04  6.60056E+00  2.58898E+04  1.48804E+01
  2.58517E+04  6.15603E+01  2.57127E+04  5.90753E+01  2.56262E+04 -3.14852E+01  2.54525E+04 -1.07475E+01
  2.53723E+04  1.48585E+01  2.51664E+04 -1.04687E+01  2.51529E+04  6.26725E-01  2.50190E+04 -3.88135E+01
  2.48439E+04  6.03543E+01  2.47841E+04 -2.87552E+01  2.45625E+04 -4.67454E+01  2.44703E+04  5.58794E+01
  2.43455E+04 -5.27297E+01  2.43235E+04  2.77268E+01  2.41197E+04  4.41693E+01  2.40347E+04 -1.05881E+00
  2.39702E+04 -4.67428E+00  2.38158E+04 -6.13714E+00  2.36926E+04 -1.53059E+01  2.36357E+04  3.62577E+01
  2.34692E+04  3.48479E+00  2.33868E+04 -1.34038E+01  2.33220E+04  1.20306E+00  2.31018E+04 -5.68674E+01
  2.30269E+04  4.97842E+01  2.29821E+04  6.22360E+01  2.28816E+04 -4.29424E+01  2.27670E+04 -2.06146E+01
  2.26319E+04  7.38223E+00  2.25136E+04  5.23669E+01  2.23739E+04  4.22112E+01  2.22471E+04  4.55902E+01
  2.21949E+04  7.14409E+00  2.20477E+04  4.40747E+01  2.20346E+04  6.00021E+01  2.18404E+04 -3.97880E+01
  2.17670E+04  2.78057E+01  2.16278E+04 -4.16963E+01  2.15180E+04  2.43005E+01  2.15344E+04 -2.23278E+01
  2.14120E+04  5.93566E+01  2.13174E+04  2.67395E+01  2.12424E+04 -2.83806E+01  2.10219E+04  5.56490E+01
  2.10386E+04  3.60000E+01  2.09102E+04  1.08699E+00  2.07329E+04 -5.90195E+01  2.06999E+04 -2.52715E+01
  2.05750E+04 -5.52838E+01  2.04381E+04 -4.38794E+01  2.03572E+04  1.90786E+01  2.02879E+04  2.26615E+01
  2.02594E+04 -5.59886E+01  2.00664E+04 -6.37885E+01  2.00082E+04  4.89478E+01  1.98952E+04  1.64385E+01
  1.98406E+04 -3.69476E+01  1.96962E+04 -5.12101E+01  1.96163E+04  2.73011E+01  1.94986E+04 -6.79915E+00
  1.95129E+04 -1.77766E+01  1.93820E+04  5.07451E+01  1.93186E+04 -1.70887E+01  1.91840E+04 -3.20183E+00
  1.91517E+04  5.17808E+01  1.89888E+04  3.54190E+01  1.89298E+04 -5.54550E+01  1.87706E+04 -6.39265E+01
  1.87761E+04 -3.12847E+01  1.86085E+04 -2.13894E+01  1.85538E+04 -1.40265E+01  1.84328E+04  1.71258E+00
  1.83412E+04  1.89291E+01  1.82392E+04  1.49102E+01  1.81561E+04 -1.74874E+01  1.81524E+04 -2.64056E+01
  1.80037E+04 -3.91204E+01  1.79454E+04 -4.75457E+01  1.78099E+04 -4.94356E+01  1.77995E+04 -3.07508E+01
  1.77270E+04  5.33543E+01  1.76673E+04 -2.94551E+01  1.75500E+04  1.28155E+01  1.74785E+04 -6.18487E+01
  1.73889E+04  4.30081E+01  1.73181E+04  4.32626E+01  1.71856E+04  8.99536E+00  1.70703E+04  4.35219E+01
  1.69872E+04  3.64819E+01  1.69263E+04  5.03481E+01  1.69307E+04 -1.81471E+01  1.67976E+04  8.09153E+00
  1.67834E+04 -5.44841E+01  1.66254E+04 -3.15325E+01  1.65678E+04  6.10603E+01  1.65076E+04 -4.19175E+01
  1.63945E+04  2.20090E+01  1.63030E+04 -4.23611E+01  1.62788E+04 -2.60726E+01  1.62191E+04 -4.27928E+00
  1.61457E+04  1.96768E+01  1.59981E+04  2.42692E+01  1.59757E+04  4.67617E+01  1.59470E+04 -3.53109E+01
  1.57605E+04 -5.64305E+01  1.57664E+04 -3.62218E+01  1.56941E+04 -1.36838E+01  1.56251E+04 -4.43812E+01
  1.55469E+04 -3.77696E+01  1.54416E+04 -4.02052E+01  1.53413E+04 -9.11006E+00  1.53541E+04 -1.13955E+01
  1.52751E+04 -2.54257E+01  1.51957E+04  1.36252E+01  1.50277E+04  3.08678E+01  1.50143E+04 -4.73112E+01
  1.49081E+04  5.57705E+01  1.49281E+04 -1.68859E+01  1.47641E+04 -3.68075E+01  1.47852E+04  5.41892E+01
  1.46696E+04 -4.66290E+00  1.46552E+04  3.45721E+01  1.45432E+04  6.09357E+01  1.45054E+04 -2.04433E+01
  1.44016E+04 -2.39890E+01  1.42910E+04  5.29521E+00  1.42727E+04  4.54210E+01  1.41464E+04 -5.09847E+01
  1.40648E+04  2.17266E+01  1.40397E+04  2.34043E+01  1.40421E+04 -8.40545E+00  1.39788E+04  4.53363E+01
  1.39123E+04 -5.24186E+01  1.37950E+04 -3.23117E+01  1.37173E+04  4.73582E+01  1.36574E+04 -3.12914E+01
  1.35640E+04 -3.49283E+01  1.35846E+04  7.96640E+00  1.34156E+04 -1.89365E+01  1.33805E+04  3.98003E+01
  1.34055E+04 -5.38464E+01  1.33133E+04  2.49908E+01  1.32028E+04 -3.82444E+01  1.30986E+04  2.54610E+01
  1.30922E+04  3.67427E+00  1.30404E+04  4.85921E+01  1.29987E+04 -6.29307E+00  1.29484E+04 -1.57636E+01
  1.28383E+04  6.36650E+01  1.28467E+04  3.36727E+01  1.27127E+04  5.35086E+01  1.27189E+04 -6.09877E+01
  1.26052E+04  5.44629E+00  1.25134E+04  4.06150E+01  1.24590E+04  5.62989E+01  1.24270E+04 -9.82227E+00
  1.24159E+04 -6.38399E+01  1.22607E+04  2.14017E+01  1.22125E+04  5.86416E+01  1.21570E+04  6.12988E+00
  1.21373E+04 -1.50344E+01  1.20806E+04 -3.93951E+01  1.19698E+04 -2.22416E+01  1.19537E+04  6.25342E+01
  1.18586E+04  4.25400E+01  1.18685E+04 -5.45385E+01  1.17595E+04 -1.06432E+01  1.17790E+04 -9.12400E+00
  1.17066E+04  3.95874E+01  1.16159E+04 -5.14937E+01  1.16443E+04  3.95530E+01  1.15099E+04  7.33330E+00
  1.15230E+04 -2.50404E+01  1.14777E+04  1.62842E+01  1.13302E+04  2.40227E+01  1.13452E+04  4.43020E+01
  1.12367E+04  1.59583E+01  1.12473E+04 -2.12799E+01  1.12163E+04  3.45803E+01  1.11493E+04 -3.25249E+01
  1.10600E+04  5.42843E+00  1.10314E+04 -3.47265E+01  1.10084E+04 -1.97641E+01  1.08793E+04 -6.40940E+01
  1.08149E+04 -1.92328E+01  1.08057E+04  2.03374E+01  1.06855E+04  2.67210E+01  1.07577E+04 -9.77923E+00
  1.06283E+04  3.14328E+01  1.06300E+04  4.39673E+01  1.05754E+04 -4.41306E+01  1.04315E+04  6.83854E+00
  1.03827E+04  3.50242E+01  1.04265E+04  2.07833E+01  1.03499E+04 -2.47857E+01  1.03548E+04 -4.87688E+01
  1.03046E+04  2.58153E+01  1.02228E+04  6.09736E+01  1.01303E+04  4.95945E+00  1.01360E+04 -3.77173E+01
  1.01113E+04  9.00993E+00  1.00037E+04 -2.45013E+01  9.93615E+03  5.64927E+01  9.86696E+03  3.47929E+01
  9.83618E+03  6.01769E+01  9.88233E+03 -4.58546E+01  9.77270E+03  4.32630E+01  9.73914E+03 -6.04211E+01
  9.66400E+03 -1.47144E+01  9.62826E+03 -4.02956E+01  9.53727E+03  2.91551E+00  9.55439E+03 -1.16084E+01
  9.51154E+03 -2.60786E+01  9.52299E+03 -2.05304E+01  9.39902E+03 -1.44048E+01  9.33543E+03 -6.07545E+01
  9.28922E+03  3.91372E+00  9.31924E+03  5.25250E+01  9.17694E+03 -1.37955E+01  9.13969E+03  4.87231E+01
  9.16079E+03 -4.73555E+01  9.05368E+03 -3.66960E+01  9.06378E+03  3.09218E+01  8.97102E+03 -3.74910E+01
  8.92171E+03 -2.26123E+01  8.97946E+03  4.04321E+01  8.94483E+03  5.24654E+00  8.91477E+03 -3.61355E+01
  8.81346E+03 -5.04550E+00  8.74611E+03 -1.95233E+01  8.68212E+03 -3.91200E+01  8.66729E+03 -2.66265E+01
  8.61243E+03  4.42775E+01  8.64904E+03  5.01407E+01  8.60881E+03 -5.10768E+01  8.48201E+03 -8.65601E+00
