 $NMID ID='dataset23', FMTDAT='(8E13.5)'
 TRAMP=1, VOLUME=1 $END
  4.99332E+04  1.64395E+01  4.96894E+04 -1.57647E+00  4.94676E+04 -2.28969E+01  4.92518E+04 -1.40566E+01
  4.89765E+04  1.42853E+01  4.87875E+04  1.86751E+00  4.85233E+04 -1.58925E+01  4.83183E+04 -4.55684E+00
  4.81022E+04  1.34921E+01  4.78524E+04  7.81832E-01  4.76454E+04 -1.90231E+01  4.74166E+04  2.29572E+01
  4.71907E+04 -1.28366E+01  4.69787E+04 -1.67807E+01  4.67564E+04 -2.77669E+00  4.65381E+04  2.79771E+00
  4.63159E+04  8.06378E+00  4.60677E+04  1.48364E+01  4.58831E+04  2.00280E+01  4.56523E+04  5.75420E+00
  4.54225E+04 -2.16437E+01  4.52360E+04 -1.87401E+01  4.50003E+04 -3.85164E+00  4.48126E+04  3.10579E+00
  4.46001E+04 -2.91393E-01  4.43853E+04 -3.33475E+00  4.41773E+04 -1.18584E+01  4.39805E+04 -1.89326E+01
  4.37484E+04  1.94304E+01  4.35698E+04 -2.18801E+01  4.33585E+04 -2.22582E+01  4.31232E+04  5.63058E+00
  4.29461E+04  2.33242E+00  4.27457E+04  1.53406E+00  4.25500E+04  9.66261E+00  4.23613E+04 -1.36557E+01
  4.21340E+04  2.27918E+01  4.19301E+04  8.28821E-01  4.17435E+04 -2.14698E+01  4.15509E+04 -9.78393E+00
  4.13425E+04  5.30779E+00  4.11696E+04 -6.70148E+00  4.09682E+04  1.78126E+01  4.07740E+04  2.31272E+01
  4.05641E+04 -1.42937E+01  4.03974E+04  1.41332E+01  4.02153E+04  9.84752E+00  4.00125E+04  1.11183E+01
  3.98184E+04 -7.26539E-01  3.96407E+04  1.79003E+01  3.94732E+04 -1.84317E+01  3.92556E+04 -3.26269E+00
  3.90953E+04 -1.66091E+01  3.89078E+04 -3.40301E+00  3.87266E+04 -8.09678E+00  3.85243E+04  1.72976E+01
  3.83351E+04 -1.51708E+01  3.81622E+04 -7.09244E-01  3.79974E+04  5.76973E+00  3.78213E+04  9.77247E+00
  3.76121E+04 -1.78563E+01  3.74742E+04  2.15085E+01  3.72897E+04 -1.36362E+01  3.71019E+04 -2.03698E+01
  3.69137E+04 -6.68816E+00  3.67425E+04  6.40874E+00  3.65969E+04  1.81454E+01  3.63985E+04  2.02132E+01
  3.62637E+04 -2.27646E+01  3.60641E+04  8.21657E-01  3.59157E+04  1.93492E+01  3.57243E+04 -2.06454E+01
  3.55876E+04 -2.30575E+01  3.53947E+04 -1.47255E+01  3.52190E+04 -1.68281E+01  3.50787E+04 -1.78119E+01
  3.49089E+04 -1.79044E+01  3.47572E+04 -1.44076E+01  3.45502E+04 -1.01168E+01  3.44092E+04 -1.75651E+01
  3.42640E+04 -2.23307E+01  3.40732E+04 -1.98720E+01  3.39425E+04  7.02167E+00  3.37525E+04  1.61602E+01
  3.36267E+04 -1.53999E+01  3.34341E+04  2.30895E+01  3.33177E+04 -2.75656E+00  3.31161E+04  1.56301E+00
  3.29661E+04  8.65590E+00  3.28336E+04  2.26734E+01  3.26626E+04 -1.80472E+01  3.25412E+04  1.34581E+01
  3.23760E+04  9.53839E+00  3.22068E+04  2.07588E+01  3.20658E+04  1.43148E+01  3.18962E+04  1.19828E+01
  3.17422E+04 -3.23063E+00  3.16334E+04 -3.49964E+00  3.14481E+04 -1.73582E+01  3.13325E+04  1.71627E+01
  3.11556E+04 -6.36666E+00  3.10309E+04  2.24608E+01  3.08888E+04  1.66422E+00  3.07475E+04  9.48331E+00
  3.06011E+04  1.81969E+01  3.04601E+04  9.75225E+00  3.02886E+04  1.86312E+01  3.01408E+04  3.80757E+00
  2.99983E+04 -1.89734E+01  2.98818E+04  3.41343E+00  2.97139E+04  8.35331E+00  2.96064E+04 -7.37533E+00
  2.94746E+04 -9.82000E-01  2.93245E+04  1.06435E+00  2.91918E+04 -1.48860E+01  2.90613E+04  4.65925E+00
  2.89229E+04 -1.32249E+01  2.87739E+04 -2.29944E+01  2.86376E+04  2.07444E+01  2.84784E+04 -9.54850E+00
  2.83582E+04 -3.84305E+00  2.82271E+04 -2.00288E+01  2.80845E+04  2.92258E+00  2.79439E+04  2.25833E+01
  2.78546E+04  5.59779E+00  2.76862E+04  1.76061E+01  2.75802E+04 -1.00899E+01  2.74562E+04 -7.44567E+00
  2.73040E+04  1.71895E+01  2.72016E+04  1.92501E+01  2.70739E+04  1.95754E+01  2.69414E+04  2.28321E+01
  2.68103E+04  8.19445E-01  2.66823E+04  1.96626E+01  2.65379E+04  9.13681E+00  2.64283E+04 -1.98720E+01
  2.63287E+04  3.00002E-01  2.62006E+04  1.70067E+01  2.60729E+04  1.73728E+01  2.59443E+04 -8.26246E+00
  2.58161E+04 -1.07352E+01  2.57125E+04 -1.64414E+01  2.55499E+04  2.05378E+01  2.54394E+04  2.34050E+01
  2.53184E+04 -1.77917E+00  2.52293E+04  1.02587E+01  2.51082E+04 -1.94600E+01  2.49701E+04  1.97638E+00
  2.48782E+04  1.85629E+01  2.47629E+04 -5.57678E+00  2.46115E+04  3.28052E+00  2.45110E+04  3.34172E+00
  2.44146E+04 -2.11437E+01  2.43024E+04  1.42431E+00  2.41500E+04 -1.84078E+01  2.40533E+04 -1.04943E+01
  2.39494E+04  1.25416E+01  2.38327E+04  9.32225E+00  2.37133E+04  1.70129E+01  2.35869E+04  6.90955E+00
  2.34773E+04  1.93988E+01  2.33622E+04 -1.16437E+01  2.32689E+04 -7.75744E+00  2.31792E+04 -1.61307E+01
  2.30646E+04 -6.12340E+00  2.29684E+04 -1.92409E+01  2.28140E+04  1.07895E+01  2.27442E+04  1.10545E+00
  2.26408E+04 -1.67886E+01  2.25002E+04  6.19230E+00  2.23926E+04  7.19575E+00  2.23236E+04  4.70697E+00
  2.21809E+04  1.32180E+01  2.20788E+04  3.69696E+00  2.19812E+04 -1.87956E+01  2.18663E+04 -1.85377E+01
  2.17888E+04 -1.50914E+01  2.16615E+04 -8.84293E+00  2.15632E+04 -1.99504E+01  2.14903E+04  2.15119E+00
  2.13566E+04  2.47608E+00  2.12645E+04 -9.75690E+00  2.11784E+04  1.42991E+01  2.10968E+04  2.25254E+00
  2.10008E+04 -4.12666E+00  2.08950E+04 -1.65629E+01  2.07639E+04  1.63660E+01  2.07025E+04 -1.96165E+01
  2.05824E+04  1.73491E+01  2.05040E+04  1.21186E+01  2.03898E+04  1.22295E+01  2.03021E+04  7.47071E+00
  2.02124E+04 -2.61572E+00  2.00857E+04 -8.15906E-01  2.00039E+04 -7.42195E+00  1.99286E+04 -2.23584E+01
  1.98228E+04 -8.07264E-01  1.97143E+04  1.52696E+01  1.96260E+04 -8.22503E+00  1.95510E+04  5.61148E+00
  1.94386E+04  5.11674E+00  1.93781E+04  3.35477E+00  1.92819E+04  1.67137E+01  1.91691E+04 -1.65655E+01
  1.91034E+04 -1.15329E+01  1.90098E+04 -1.25657E+01  1.89343E+04 -1.15679E+00  1.88110E+04 -2.03985E+01
  1.87196E+04  1.20341E+01  1.86305E+04 -7.20355E+00  1.85701E+04 -1.06444E+01  1.84702E+04 -1.32447E+01
  1.83922E+04 -8.65434E-01  1.82840E+04  1.23343E+01  1.82072E+04 -1.82246E+00  1.81334E+04 -9.32480E+00
  1.80522E+04 -1.95324E+01  1.79500E+04  3.16377E+00  1.78972E+04 -1.04046E+01  1.78057E+04  5.36544E+00
  1.77214E+04 -1.35740E+01  1.76155E+04 -1.46112E+01  1.75417E+04 -1.29525E+01  1.74658E+04 -2.23366E+01
  1.73612E+04  1.37843E+01  1.72906E+04  1.40493E+01  1.72161E+04  1.38129E+01  1.71485E+04 -1.89290E+01
  1.70664E+04 -1.58117E+01  1.69550E+04  1.48896E+01  1.69008E+04 -4.03450E+00  1.68130E+04  1.40286E+01
  1.67153E+04  5.04070E+00  1.66336E+04 -3.95853E+00  1.65629E+04  3.28691E+00  1.65215E+04 -4.44911E+00
  1.64057E+04 -1.89021E+01  1.63278E+04  1.88945E+01  1.62862E+04 -1.02554E+01  1.61715E+04 -1.95458E+01
  1.60920E+04  1.28530E+00  1.60259E+04 -3.85999E+00  1.59443E+04 -1.23573E+01  1.58739E+04  2.29970E+01
  1.57939E+04  6.94911E+00  1.57212E+04 -1.54975E+01  1.56860E+04 -4.62611E+00  1.55793E+04 -2.26205E+01
  1.55161E+04  1.93770E+00  1.54386E+04  6.79604E+00  1.53893E+04  1.13721E+01  1.53113E+04  8.25417E+00
  1.52123E+04  1.43944E+01  1.51493E+04 -2.27854E+01  1.51035E+04  2.13031E+01  1.50117E+04  1.90985E+01
  1.49315E+04 -1.97551E-01  1.48773E+04 -2.11436E+01  1.47807E+04 -1.51423E+01  1.47564E+04  1.65870E+00
  1.46548E+04 -6.69315E+00  1.45844E+04  1.85190E+01  1.45412E+04  2.28313E+01  1.44459E+04 -1.24310E+01
  1.44111E+04 -1.14693E+01  1.43048E+04  1.35933E+01  1.42738E+04 -4.61923E+00  1.41703E+04  4.78525E-01
  1.41395E+04 -1.36053E+01  1.40540E+04  2.29645E+01  1.39783E+04 -1.37469E+01  1.39080E+04 -1.69515E+01
  1.38610E+04 -1.89247E+01  1.37697E+04 -2.05277E+01  1.37511E+04 -4.43708E+00  1.36598E+04 -5.12948E+00
  1.36210E+04 -1.73601E+01  1.35154E+04 -4.08074E+00  1.34602E+04 -8.60243E+00  1.34290E+04  2.16093E+01
  1.33616E+04  1.13351E+01  1.32595E+04  1.65721E+01  1.32306E+04  6.66764E+00  1.31702E+04  7.46125E+00
  1.30789E+04 -9.81413E+00  1.30275E+04 -1.17635E+01  1.29606E+04  1.52333E+01  1.29097E+04  1.97261E+01
  1.28683E+04 -5.65551E+00  1.27727E+04  5.62396E+00  1.27129E+04 -1.42510E+01  1.26550E+04  7.34164E+00
  1.26288E+04  8.16356E+00  1.25562E+04  8.54702E-01  1.24750E+04 -1.54097E+01  1.24410E+04  7.37423E-01
  1.23771E+04  2.05098E+01  1.23377E+04  4.61436E+00  1.22496E+04 -1.71334E+01  1.22166E+04  1.57129E+01
  1.21505E+04  1.28973E+01  1.20694E+04 -1.03912E+01  1.20521E+04 -5.32440E+00  1.19637E+04 -4.39892E+00
  1.19340E+04  1.11935E+01  1.18745E+04  2.09813E+01  1.18203E+04 -9.92103E-01  1.17596E+04  1.10759E+00
  1.16771E+04 -1.99119E+01  1.16534E+04 -5.43469E+00  1.15982E+04 -6.33768E-01  1.15446E+04  1.00521E+01
  1.14816E+04  1.21840E+01  1.14464E+04  2.31493E+01  1.13772E+04  1.35734E+01  1.13323E+04  1.08554E-01
  1.12856E+04 -6.29014E+00  1.12159E+04 -1.61905E+01  1.11481E+04 -9.05508E+00  1.11096E+04 -1.86016E+01
  1.10441E+04  1.52357E+01  1.09891E+04  2.34327E+01  1.09617E+04  2.23012E+01  1.08790E+04 -7.61025E-01
  1.08234E+04  6.83374E+00  1.07801E+04  2.31022E+01  1.07370E+04  6.03292E+00  1.07107E+04 -1.18559E+01
  1.06513E+04 -3.22643E+00  1.06119E+04  4.60090E+00  1.05471E+04 -6.42429E+00  1.04839E+04  2.12587E+01
  1.04396E+04  4.30805E+00  1.03783E+04 -4.20713E+00  1.03412E+04  1.73419E+01  1.02792E+04 -8.63139E+00
  1.02360E+04  3.59856E+00  1.01837E+04 -1.22114E+01  1.01382E+04 -1.07195E+01  1.00933E+04  2.50840E+00
  1.00782E+04 -9.61684E+00  9.99331E+03  7.85901E+00  9.96423E+03  1.81830E+01  9.93315E+03  3.94889E+00
  9.88346E+03  1.88977E+01  9.81348E+03  9.68640E+00  9.76070E+03 -1.47796E+01  9.71769E+03 -7.49556E+00
  9.70996E+03 -2.25862E+01  9.63008E+03 -6.19252E-01  9.59108E+03 -9.64191E+00  9.53533E+03 -2.27428E+01
  9.48307E+03  9.82361E+00  9.44773E+03 -3.63480E+00  9.41507E+03  1.88284E+01  9.37792E+03 -1.17451E+01
  9.31560E+03  6.54186E+00  9.30407E+03 -4.16234E+00  9.22293E+03  2.23486E-01  9.21833E+03 -4.22932E+00
  9.17294E+03  1.74045E+01  9.10924E+03 -9.68745E+00  9.07880E+03  1.26121E+01  9.03136E+03 -1.83445E+01
  9.00149E+03  2.58844E+00  8.94848E+03  1.23855E+01  8.87541E+03  7.76305E+00  8.87398E+03  1.98918E+01
  8.80161E+03  6.71358E+00  8.79142E+03  8.15803E+00  8.75532E+03  3.95931E+00  8.70636E+03  2.17495E+01
  8.64444E+03 -1.04802E+01  8.62408E+03 -6.07730E+00  8.55406E+03  7.17205E+00  8.54878E+03 -2.04944E+01
