 $NMID ID='dataset15', FMTDAT='(8E13.5)'
 TRAMP=1, VOLUME=1 $END
  2.71025E+02  1.03129E+02  4.74196E+02  1.99166E+02  3.34240E+02  3.79036E+02  1.18201E+02  4.21023E+02
 -4.38324E+01  3.92261E+02 -1.63595E+02  2.70749E+02 -2.36551E+02  1.28150E+02 -1.87808E+02  2.79430E+01
 -1.19865E+02 -7.30549E+01 -4.77997E+01 -9.20226E+01  3.66423E+01 -6.16670E+01  4.10662E+01 -8.55693E+00
  5.39808E+01  3.56446E+01  6.71246E+00  8.86566E+01 -8.34393E+00  9.61405E+01 -4.11106E+01  5.80097E+01
 -8.55257E+01  5.28673E+01 -9.18176E+01  1.50574E+01 -8.02226E+01 -6.49445E+00 -8.13326E+01 -2.89940E+01
 -7.53511E+01 -4.71415E+01 -5.47838E+01 -5.74666E+01 -2.39683E+01 -6.61500E+01  3.82466E+00 -8.50009E+01
  3.62386E+01 -5.47507E+01  4.77122E+01 -3.42021E+01  4.08788E+01 -1.86820E+01  2.65211E+01  1.31247E+01
  2.24714E+01  4.94987E+01 -2.61053E+01  5.33210E+01 -4.66626E+01  2.97486E+01 -6.84985E+01 -5.98224E+00
 -4.70950E+01 -4.99395E+01 -3.06719E+01 -7.28864E+01 -8.74182E+00 -7.12654E+01  2.58824E+01 -8.99523E+01
  5.73573E+01 -7.36844E+01  6.03044E+01 -3.55668E+01  7.53948E+01 -1.57286E+01  7.40012E+01  3.22836E+00
  5.04332E+01  3.46924E+01  4.31298E+01  3.00476E+01  3.74755E+01  6.00751E+01  2.59846E+01  5.59205E+01
 -8.92219E-01  6.23579E+01 -1.85211E+01  3.52792E+01 -3.02426E+01  1.65801E+01 -2.41163E+01  6.43810E+00
  2.69487E+00 -9.38634E+00 -1.84586E+00 -1.63148E+01  2.24838E+01  5.79304E+00  1.37120E+01  4.01720E+01
 -6.33604E+00  4.30728E+01 -3.19121E+01  5.82120E+01 -6.03054E+01  4.04284E+01 -8.01896E+01  1.89550E+01
 -5.92285E+01 -2.26856E+01 -3.57921E+01 -5.37009E+01 -3.54113E+00 -7.93093E+01  2.41745E+01 -6.69805E+01
  4.88906E+01 -4.55199E+01  6.44856E+01 -1.34222E+00  5.24433E+01  2.03362E+01  4.62762E+01  5.88661E+01
 -3.21850E+00  4.63546E+01 -1.33984E+01  5.03390E+01 -5.49857E+01  2.76911E+01 -3.88052E+01 -1.60161E+00
 -4.30327E+01 -7.09568E+00 -3.37797E+01 -1.05751E+01 -1.29708E+01 -1.71942E+01  2.27021E+00 -4.15808E+01
  8.89721E+00 -1.17175E+01  1.38058E+00 -2.61310E+01  7.17714E+00 -4.80122E+00  1.19950E+01 -1.65140E+01
  6.37684E+00  8.74449E+00  1.55973E+01  3.31273E+00  6.76477E-01  3.21345E+01 -2.03280E+01  2.56133E+01
 -1.06230E+01  1.69924E+01 -2.70436E+01  2.65129E+00 -3.27415E+01 -1.75533E+01 -6.88572E+00 -3.74693E+01
  9.92665E+00 -5.32247E+01  2.39072E+01 -2.47502E+01  3.90625E+01 -2.43332E+00  5.26462E+01  2.46464E+01
  4.74113E+01  4.69015E+01  2.23966E+01  4.89755E+01 -2.87237E+01  2.86927E+01 -3.09336E+01  1.40031E+01
 -2.48449E+01  9.87575E+00 -1.49432E+01 -3.28680E+01 -1.46365E+01 -4.74448E+01 -1.40841E+00 -4.28637E+01
  2.76973E+01 -3.66741E+01  5.38933E+01 -1.84056E+01  5.54814E+01  6.12485E+00  2.52812E+01  3.21303E+01
  3.12770E+01  2.74736E+01  2.02512E+01  3.82567E+01 -1.37858E+01  4.69382E+01 -1.31330E+01  5.45422E+01
 -2.89328E+01  2.79320E+01 -4.95430E+01  2.55151E+00 -5.67453E+01  4.59002E+00 -5.24396E+01 -2.74253E+01
 -1.86097E+01 -2.99035E+01 -1.56073E+01 -2.51108E+01  2.76954E+00 -3.50508E+01  1.73710E+01 -1.56320E+01
  3.09012E+01 -9.75210E+00  2.42578E+01  4.70991E+00  1.27258E+01  2.27425E+01 -1.17039E+01  3.07244E+01
 -4.94189E+00  3.51013E+00 -1.17830E+01  5.35473E+00 -2.45885E+01 -4.11980E+00 -7.82826E+00 -1.13069E+01
  1.75085E+01 -1.98533E+01  7.66029E+00 -1.03733E+01  2.31220E+01 -1.07379E+01  3.15629E+01  1.99600E+01
  2.40469E+01  3.67425E+01  9.59827E+00  3.56809E+01 -9.19149E+00  2.01418E+01 -7.62398E+00  2.11395E+01
 -1.44050E+01  1.34416E+00 -1.99517E+01 -6.07981E+00 -1.16652E+01 -2.43044E+01 -1.54156E+01 -2.65055E+01
 -2.04740E+01 -4.36086E+01  2.77168E+00 -1.67110E+01  1.09385E+01 -4.36673E+01  2.86650E+01 -8.99828E+00
  2.91691E+01 -1.35805E+01  4.82118E+01  1.20297E+01  2.10948E+01  2.75636E+01  2.50337E+01  3.22038E+01
  2.28356E+01  4.23418E+01 -5.35149E+00  2.39140E+01 -1.73592E+01  2.37649E+01 -1.13774E+01  2.27687E+01
 -2.14894E+01  1.09381E+01 -1.44544E+01 -1.53027E+01 -8.50372E+00  3.06489E+00  1.53984E+00  2.41338E-01
 -9.41082E+00 -5.04026E+00 -1.32540E+01  1.76392E+01 -6.12845E+00  1.76231E+01 -2.09210E+01  2.29552E+00
 -3.89906E+01  1.68046E+01 -2.00310E+01  8.06964E+00 -3.43811E+01 -1.50184E+01 -1.13078E+01 -1.93843E+01
 -1.41830E+00 -4.41767E+01  3.82662E+00 -2.36255E+01  1.27464E+01 -1.53517E+01  1.70412E+01 -1.40752E+01
  1.52615E+01  9.82544E+00  2.57285E+01  2.44257E+00  2.34197E+01  2.16644E+01 -9.10118E+00  2.66235E+01
 -1.97006E+00  1.81698E+01 -2.72676E+01  5.09356E+00 -2.19744E+01 -5.86085E+00 -3.40247E+01 -8.90057E+00
 -1.62280E+01 -1.56442E+01 -2.88325E+01 -2.87069E+01 -1.21749E+01 -2.71909E+01  6.93084E+00 -3.04954E+01
  2.12888E+01 -3.87534E+01  2.83211E+01 -9.95167E+00  3.46306E+01 -1.29541E+01  1.48023E+01 -1.36958E+01
  2.47760E+01 -5.54288E+00  9.21900E+00 -7.55484E+00  1.83694E+01  1.24033E+01 -1.37315E-01  1.41032E+00
  2.48307E+01 -9.72723E+00  2.05630E+01 -7.51668E+00  6.57098E+00  1.64631E+01  1.51711E+01  1.97124E+01
  1.58690E+01  2.05874E+01  9.62921E+00  1.29283E+01 -1.16929E+01  2.85219E+01 -2.34842E+00  3.63080E+01
 -1.28228E+01  1.10115E+01 -3.61561E+01  2.55873E+01 -1.78180E+01  2.32891E+01 -3.83303E+01 -4.99483E+00
 -2.31746E+01  8.90273E-02 -1.63597E+01 -2.24348E+01  5.12834E+00 -2.34696E+01  2.02573E-01 -3.12377E+01
  2.52544E+00 -3.56013E+00  9.67628E+00 -1.38529E+01  6.50386E+00 -3.86883E+00  2.39620E+01  1.30849E+01
  1.55677E+01 -1.74321E+00 -3.46232E+00  1.45033E+01 -1.95706E+01 -1.82360E+00 -1.73902E+01 -3.67375E+00
 -2.03038E+01 -1.26849E+01  6.35110E+00 -5.48534E-01 -5.46420E+00 -2.13409E+01 -8.67812E+00 -1.87844E+01
 -1.47985E+00  6.79893E+00  1.11043E+01  5.63779E+00  4.92061E+00  2.10641E+01 -1.16599E+00  4.20870E+00
  1.49849E-01  1.80221E+01 -7.18030E+00  5.91208E+00 -2.60796E+01 -3.65338E+00 -1.33415E+01 -1.22310E+01
 -3.43807E+00 -4.08913E+00  5.94714E+00 -1.92462E+01  1.05104E+01 -2.46545E+01  2.84677E+01 -3.58255E+00
  1.51710E+01  1.79962E+00  2.24166E+01 -3.56864E+00  2.30124E+01 -2.14016E+00  1.94319E+01  2.80195E+01
  8.32632E+00  3.16500E+01  2.02973E+01  2.45683E+01 -5.92887E+00  9.42150E+00  7.51971E-01  1.80323E+01
 -2.89183E+00  9.03354E+00 -2.07182E+01 -1.10022E+01 -4.92139E+00 -4.36912E+00  2.05909E-01 -1.19889E+01
  3.11084E+00 -1.97031E+01 -3.05617E+00 -2.00715E+01 -1.41381E-02 -2.29206E-01  1.48019E+01  1.04981E+01
 -2.39753E+00  1.46779E+01 -1.04285E+01 -5.20367E+00  8.71382E+00  7.48858E-01 -1.14726E+00  1.10642E+01
  1.87095E+00  1.60891E+01 -1.30268E+01  8.49838E+00  1.11868E+01 -1.55693E+01 -1.57946E+01  1.04066E-01
  4.09335E+00  2.67115E+00  9.39856E-01 -1.27215E+01  7.25363E+00  4.48150E+00  9.93619E+00  1.26877E+01
 -1.68108E+01  4.15523E-02 -1.71669E+01  9.75000E-01 -9.89185E+00  1.81459E+01 -2.68878E+01  4.07123E+00
 -2.02548E+01 -1.76552E+01 -1.49748E+01 -1.70390E+01 -1.96738E+01 -2.42784E+01 -1.41247E+01 -1.71984E+01
  1.63998E+01 -1.99793E+01  1.14303E+00 -1.36453E+01  2.04943E+01 -1.23689E+01  9.10207E+00 -1.33893E+01
  4.05170E+00  7.67921E+00 -8.02609E+00  1.54127E+01  1.12891E+01 -7.41710E+00 -1.52797E+01 -2.72994E+00
 -1.16764E+01  1.21059E+01 -6.34952E+00 -4.83384E+00 -6.72818E+00 -1.60523E+01  1.81542E+01 -4.79254E+00
 -1.66327E+00 -2.04957E+01  1.63394E+01  3.03470E+00  9.72923E+00  6.97459E+00  1.97020E+00 -4.08518E+00
  1.28254E+01  5.49024E+00  6.36562E+00  1.39295E+01 -1.13554E+01  2.33021E+01 -4.47953E+00  6.60375E+00
 -1.25222E+00  1.09807E+01 -1.81143E+01  4.95714E-01  2.28732E+00  1.10388E+01 -1.54628E+01 -5.45389E+00
  2.89111E+00 -1.36913E+01  1.01048E+01  9.73050E+00  1.65435E+00  1.17639E+01  3.08387E+00 -6.92952E+00
  6.90764E+00  4.77625E-01  9.55239E+00  1.07924E+01 -9.95935E+00  8.62734E+00 -2.22369E+00  1.62185E+01
 -1.13338E+01 -8.21683E+00 -2.99457E+01  8.26444E+00 -2.15341E+01 -8.62612E-01  4.08004E+00 -7.89427E+00
 -6.58015E+00 -2.57592E+01 -1.99816E+00 -9.11214E+00  6.86759E+00  1.13484E+00  8.69908E+00 -2.00154E+01
  5.41375E+00  1.02125E+01  6.83243E+00  4.33495E+00  3.90777E+00  1.91980E+01  2.07362E+00  8.17522E+00
 -6.42170E+00  2.47557E+01  6.75627E+00  9.06433E+00 -2.84444E+00 -2.86092E+00 -4.00241E+00  1.04016E+01
 -1.08428E+01  1.32755E+01 -1.25753E+01  8.88038E+00 -8.10439E-02 -4.80427E+00 -8.51385E+00  9.21323E+00
 -1.28485E+01  9.56099E+00 -1.27506E+01 -9.31038E+00  6.52532E-01 -1.32385E+01  5.42792E+00 -1.29268E+01
 -1.30593E+01 -5.76068E+00  1.81822E-01  7.18205E+00 -5.99061E+00 -2.08531E+01 -3.58493E+00 -1.08895E+01
  6.85658E+00 -1.70716E+01  1.87586E+01 -2.38971E+01  9.90004E+00 -2.15990E+01  3.83753E+00 -7.95753E+00
  4.78907E+00  1.72976E+01  1.87044E+01  1.02085E+01  4.85783E+00  1.57754E+01 -9.98336E-03 -1.18000E+00
 -7.51654E+00 -3.46326E+00  5.93828E+00  4.55318E+00 -6.87865E+00 -1.73289E+00 -1.72320E+00 -1.14344E+01
  3.25012E+00  1.00391E+01  1.09458E+01  1.20123E+01  9.46509E+00  1.01858E+01 -5.76625E+00 -1.34644E+01
 -1.21433E+01 -1.21155E+01  6.48845E+00 -1.18198E+01 -1.47532E-01 -4.20654E+00 -2.54170E+00 -3.56932E+00
  4.27332E+00 -7.53697E+00 -1.01817E+01  9.47175E+00  1.74303E+00 -4.01817E+00 -1.66388E+01 -5.60847E+00
 -2.25784E-01  1.21285E+00  2.25182E+00  5.22209E+00  1.19714E+01  7.32827E+00 -1.47318E+00 -9.94065E+00
  1.54963E+01  7.80959E+00 -6.43812E+00  5.69824E+00 -1.51616E+00  7.66919E+00 -1.84726E+01  1.82888E+01
 -1.06347E+01  1.74479E+01 -1.58224E+01 -1.40596E+01 -1.81636E+01 -1.34710E+01 -2.01634E+01 -2.57478E+01
 -4.03979E+00 -1.08512E+01  1.72631E+01 -3.89872E+00  1.14358E+01 -1.59027E+01  2.53296E+00 -5.51025E+00
  9.31123E+00  3.59416E+00  1.18084E+01 -1.47219E+01  2.73999E+01  7.41812E+00 -3.94293E+00  4.96705E+00
  1.24397E+01 -1.09320E+00 -1.42281E+00  5.22679E+00  1.20680E-01 -4.08528E+00  1.03506E+01 -2.39191E+00
  9.59585E+00  1.11626E+01  1.29094E+01  1.67075E+01 -5.13065E+00  5.12333E+00  5.55821E+00 -8.79111E+00
  3.64901E+00  1.87911E+01 -1.33878E+01  8.48084E+00  7.39030E+00  2.01277E+01  7.94837E+00  1.02415E+01
 -1.78488E+00  3.65847E+00 -4.01282E+00  1.51335E+01 -5.63093E+00 -6.35723E+00 -1.19020E+00 -1.73380E+01
