 $NMID ID='dataset4', FMTDAT='(8E13.5)'
 TRAMP=1, VOLUME=1 $END
  5.64911E+04 -3.74073E+00  5.63132E+04  5.62292E+00  5.61405E+04  1.25998E+01  5.59921E+04 -2.98467E+01
  5.58900E+04  6.94454E+00  5.57428E+04  2.64962E+01  5.55532E+04  3.03916E+01  5.53996E+04  1.30025E+01
  5.52625E+04  3.05550E+01  5.50974E+04 -3.81099E+00  5.49594E+04 -2.02806E+01  5.48221E+04 -2.78427E+01
  5.46759E+04 -1.31308E+01  5.44913E+04 -1.42950E+01  5.43472E+04 -2.48268E+01  5.41844E+04 -1.58177E+01
  5.40552E+04 -1.55562E+01  5.39147E+04 -2.32364E+01  5.37908E+04  2.65324E+01  5.36425E+04 -2.44693E+01
  5.34973E+04  2.76060E+01  5.33156E+04 -1.18832E+01  5.31943E+04  2.24024E+01  5.30230E+04  1.85124E+01
  5.28583E+04 -2.17617E+01  5.27483E+04 -1.70609E+01  5.25861E+04 -1.65708E+01  5.23960E+04  2.29599E+00
  5.22816E+04  1.23925E+01  5.21005E+04 -1.09850E+01  5.19690E+04 -1.64657E+01  5.18434E+04  6.18677E+00
  5.16744E+04  2.28157E+01  5.15087E+04  9.28658E+00  5.13800E+04 -1.62152E+01  5.12163E+04 -8.07926E+00
  5.10557E+04  5.80558E+00  5.09101E+04  2.44968E+01  5.08105E+04 -5.93120E+00  5.06512E+04 -2.56875E+01
  5.04782E+04  3.52919E+00  5.03497E+04  1.42980E+01  5.01734E+04 -2.43957E+01  5.00394E+04 -3.02206E+01
  4.99214E+04 -1.06857E+01  4.97358E+04 -1.74565E+01  4.96136E+04 -1.17088E+01  4.94438E+04 -2.32635E+01
  4.93431E+04 -2.70799E+01  4.91531E+04 -2.97623E+01  4.90247E+04 -3.04081E+01  4.88593E+04 -3.03730E+01
  4.87174E+04  2.21253E+01  4.85553E+04 -1.69468E+01  4.84240E+04 -2.99311E+01  4.82862E+04  3.92104E+00
  4.81451E+04  4.64306E+00  4.80298E+04  1.26006E+01  4.78760E+04  1.71861E+00  4.76918E+04 -2.08882E+01
  4.75682E+04  1.35898E+01  4.74553E+04  4.47754E+00  4.72480E+04  1.23277E+01  4.71507E+04 -3.14115E+01
  4.70163E+04 -2.08147E+01  4.68295E+04  6.37328E+00  4.66765E+04  1.35613E+01  4.65582E+04  3.10223E+01
  4.64054E+04  2.38035E+01  4.62738E+04  9.15385E+00  4.61456E+04 -1.30684E+01  4.60084E+04  3.12948E+01
  4.58550E+04  2.83407E+01  4.57207E+04  7.48277E+00  4.55783E+04 -2.95476E+01  4.54366E+04 -1.40261E+01
  4.52708E+04 -1.07360E+01  4.51205E+04 -1.60411E+01  4.49672E+04  2.13019E+01  4.48118E+04 -7.94495E+00
  4.47128E+04 -1.90670E+01  4.45541E+04 -9.89514E+00  4.44229E+04 -1.74395E+01  4.42780E+04 -1.28373E+01
  4.41162E+04  5.46187E+00  4.39943E+04  2.87117E+01  4.38487E+04 -2.51300E+01  4.37205E+04  3.12852E+01
  4.35632E+04 -1.13579E+01  4.34145E+04  1.05303E+01  4.32951E+04  2.27492E+01  4.31234E+04  1.64493E+01
  4.30394E+04  3.09764E+01  4.28754E+04 -2.08806E+01  4.27352E+04 -1.21169E+00  4.26014E+04  1.10200E+01
  4.24732E+04 -1.51230E+01  4.22930E+04  8.66545E+00  4.22016E+04 -3.42539E+00  4.20455E+04  1.26147E+01
  4.19096E+04 -1.73797E+01  4.17842E+04 -1.79001E+01  4.15917E+04  6.87925E+00  4.14883E+04  3.16957E+01
  4.13587E+04  2.49031E+01  4.12228E+04 -1.09317E+01  4.10980E+04  4.11147E+00  4.09499E+04  1.51069E+01
  4.07969E+04 -4.77044E+00  4.06431E+04  2.32191E+01  4.05255E+04 -1.81989E+01  4.03680E+04 -1.53491E+01
  4.02353E+04 -2.43222E+01  4.01017E+04 -1.04974E+00  3.99850E+04  1.73344E+01  3.98356E+04  2.68645E+01
  3.97193E+04  2.35243E+00  3.95869E+04  4.52876E+00  3.94584E+04  6.50885E+00  3.93335E+04 -1.22039E+01
  3.91778E+04 -2.81782E+00  3.90471E+04  2.50492E+01  3.89165E+04  1.06537E+01  3.87914E+04 -1.75147E+01
  3.86229E+04 -1.80204E+01  3.85182E+04 -1.34362E+01  3.83894E+04  8.27954E+00  3.82414E+04  2.75050E+00
  3.80809E+04  1.44353E+01  3.79912E+04 -4.27048E+00  3.78346E+04 -2.73085E+01  3.77341E+04  1.18120E+01
  3.75949E+04  9.64320E+00  3.74421E+04 -2.94782E+01  3.73249E+04 -1.80836E+01  3.71615E+04 -3.06847E+01
  3.70305E+04  5.05576E+00  3.69483E+04  1.17437E+01  3.67991E+04  2.62226E+01  3.66425E+04 -3.04861E+01
  3.65274E+04  1.79597E+01  3.64371E+04 -1.76614E+01  3.62971E+04 -2.80095E+01  3.61178E+04  3.17622E+01
  3.60088E+04  1.57323E+01  3.58874E+04 -7.47240E+00  3.57475E+04 -1.05273E+01  3.56512E+04  7.46327E+00
  3.55284E+04 -3.75239E+00  3.53731E+04  2.46722E+01  3.52684E+04  2.10059E+01  3.51080E+04 -1.75515E+01
  3.50106E+04  1.70293E+01  3.48532E+04 -2.33326E+01  3.47365E+04  5.93255E+00  3.46466E+04  2.66547E+01
  3.44919E+04 -1.94286E+01  3.43721E+04  2.32043E+01  3.42511E+04  1.44520E+01  3.41166E+04 -2.62085E+01
  3.39880E+04 -1.49414E+01  3.38708E+04 -1.14875E+01  3.37095E+04 -1.61527E+01  3.36166E+04 -9.10004E+00
  3.35189E+04 -1.39989E+01  3.33534E+04  3.42233E+00  3.32191E+04  3.06099E+01  3.31453E+04 -2.82449E+01
  3.30123E+04  2.97205E+01  3.28491E+04  1.00705E+01  3.27203E+04  2.93411E+01  3.26087E+04 -1.24593E+01
  3.25092E+04 -8.27676E+00  3.23762E+04  2.44671E+01  3.22781E+04 -2.16272E+01  3.21587E+04  1.06378E+01
  3.20517E+04  6.36360E+00  3.19054E+04 -1.92477E+00  3.17904E+04 -1.94391E+01  3.16689E+04  2.37062E+01
  3.15712E+04 -2.18231E+01  3.14497E+04 -3.16142E+01  3.13328E+04 -2.10507E+01  3.11776E+04 -1.88734E+00
  3.10542E+04 -2.89736E+01  3.09262E+04 -2.24480E+01  3.08461E+04 -2.29592E+00  3.07322E+04  1.69264E+01
  3.06076E+04 -1.91901E+01  3.05018E+04  1.92935E+01  3.03224E+04  1.37253E+00  3.02664E+04  5.67822E+00
  3.01464E+04 -2.23823E+01  3.00338E+04 -2.42306E+01  2.98787E+04  1.60520E+01  2.97599E+04 -1.07111E+00
  2.96463E+04 -5.27504E+00  2.95279E+04  2.18263E+01  2.94378E+04 -1.46261E+01  2.93223E+04 -3.19173E+01
  2.92190E+04 -1.08521E+01  2.90963E+04  1.51052E+01  2.89912E+04 -2.22452E+01  2.88516E+04 -2.59622E+01
  2.87301E+04 -1.12436E+01  2.86278E+04 -2.38135E+01  2.85415E+04 -6.14465E+00  2.83956E+04 -3.12032E+01
  2.83164E+04  1.33089E+01  2.81421E+04  6.95370E+00  2.80768E+04  2.61183E+01  2.79410E+04  2.71626E+01
  2.78313E+04  4.96931E+00  2.77563E+04 -2.83730E+01  2.76071E+04 -1.23192E+01  2.75206E+04  1.97947E+01
  2.74144E+04  2.02410E+01  2.72818E+04 -2.58684E+01  2.71878E+04 -3.29277E+00  2.70336E+04 -1.15117E+01
  2.69369E+04 -6.73445E+00  2.68230E+04 -2.63633E+01  2.67066E+04  7.08212E+00  2.66081E+04 -1.74646E+00
  2.65322E+04  3.19642E+01  2.64312E+04 -1.28092E+00  2.63224E+04  2.73350E+01  2.62043E+04  2.75723E+01
  2.60771E+04 -1.20025E+01  2.59549E+04 -2.39938E+01  2.58522E+04  4.83803E-01  2.57814E+04 -1.51183E+00
  2.56885E+04  1.14515E+01  2.55615E+04 -1.94970E+01  2.54424E+04  2.76575E+01  2.53406E+04 -1.71521E+01
  2.52401E+04  2.64303E+01  2.51406E+04 -3.54725E+00  2.50654E+04  2.08567E+01  2.49332E+04 -2.13079E+01
  2.48315E+04 -2.43898E+01  2.47510E+04  1.94566E+01  2.46333E+04 -1.25412E+01  2.45319E+04  2.20449E+01
  2.44367E+04  6.90266E-01  2.43052E+04 -2.81857E+01  2.42368E+04 -1.26750E+01  2.40933E+04  3.15442E+01
  2.40179E+04  1.94587E+01  2.38755E+04  1.09634E+01  2.38020E+04  2.06839E+01  2.37313E+04 -2.23346E+01
  2.35729E+04 -8.06779E+00  2.34713E+04  1.93171E+00  2.33960E+04  2.82683E+01  2.32839E+04 -1.84532E+01
  2.32215E+04  2.31381E+01  2.31125E+04 -1.46844E+01  2.30260E+04  3.09376E+01  2.29194E+04  9.26355E+00
  2.27884E+04  1.03387E-01  2.26809E+04  1.14191E+01  2.25839E+04 -2.26476E+00  2.25166E+04  1.27073E+01
  2.24092E+04  1.89451E+01  2.23459E+04  2.60329E+01  2.22280E+04 -1.84035E+01  2.20946E+04 -2.91992E+01
  2.20075E+04 -1.42596E+01  2.19287E+04 -1.33361E+01  2.18424E+04 -1.49344E+01  2.17503E+04 -3.08712E+01
  2.16499E+04  1.82432E+01  2.15374E+04 -3.20258E+01  2.14534E+04 -1.36981E+01  2.13634E+04  8.92070E+00
  2.12471E+04 -9.12444E+00  2.12035E+04 -2.62301E+01  2.10886E+04 -1.36326E+01  2.09855E+04  1.04335E+01
  2.09120E+04 -1.55294E+01  2.08339E+04  1.95724E+01  2.07461E+04  5.75833E+00  2.05941E+04  2.33591E+01
  2.05284E+04 -1.27274E+01  2.04323E+04 -1.74916E+01  2.03186E+04  1.64597E+01  2.02610E+04 -2.88260E+00
  2.01603E+04 -1.76784E+01  2.00701E+04  1.18660E+00  2.00154E+04 -1.76565E+01  1.99045E+04 -1.42039E+00
  1.98231E+04 -1.86973E+01  1.97258E+04 -2.65629E+00  1.96494E+04  2.25672E+01  1.95315E+04 -1.24451E+01
  1.94412E+04  2.41562E+01  1.93363E+04  3.44008E+00  1.92515E+04  2.18520E+01  1.91668E+04 -1.59496E+01
  1.90895E+04 -2.40971E+00  1.90209E+04  3.03428E+01  1.89195E+04 -2.41528E+01  1.88642E+04 -1.26547E+01
  1.87457E+04 -8.91094E+00  1.87031E+04  1.64196E+01  1.86093E+04  1.96881E+01  1.85276E+04 -2.83793E+01
  1.84013E+04 -5.10137E+00  1.83132E+04 -7.12019E+00  1.82151E+04  7.31411E+00  1.81932E+04 -2.49651E+01
  1.80813E+04  1.67175E+01  1.80005E+04  2.62341E+01  1.79347E+04  1.89554E+01  1.78041E+04 -2.02375E+01
  1.77144E+04 -2.00817E+01  1.76339E+04 -1.18755E+01  1.75595E+04 -2.65218E+00  1.74696E+04 -1.55720E+01
  1.74450E+04  1.89346E+01  1.73432E+04  2.26968E+01  1.72558E+04  6.59038E+00  1.71745E+04 -6.41161E+00
  1.70832E+04  4.73583E+00  1.70253E+04  2.01618E+00  1.69234E+04  2.22487E+01  1.68497E+04 -8.44956E+00
  1.67592E+04 -2.53493E+01  1.66973E+04  8.77493E+00  1.65995E+04  1.02665E+01  1.65506E+04 -1.67865E+01
  1.64463E+04  2.29325E+01  1.63563E+04  8.60686E+00  1.63146E+04  1.24704E+01  1.62214E+04 -4.37396E+00
  1.61332E+04 -3.98467E+00  1.60995E+04 -1.94285E+01  1.59950E+04  8.94750E-01  1.59422E+04  7.50713E+00
  1.58356E+04 -3.66640E+00  1.57954E+04 -2.02713E+01  1.56888E+04  8.15496E+00  1.56271E+04 -1.08629E+01
  1.55336E+04  2.06720E+00  1.54768E+04  1.40562E+01  1.53641E+04  2.70307E+01  1.53231E+04  2.91901E+00
  1.52163E+04  2.52794E+01  1.51771E+04 -3.03173E+01  1.50703E+04 -8.99711E-01  1.50109E+04  1.42889E+01
  1.49583E+04 -2.06166E-01  1.48443E+04 -1.62751E+01  1.48055E+04 -6.78818E+00  1.47150E+04  1.48763E+01
  1.46697E+04  1.80903E-01  1.45984E+04 -2.03487E+01  1.45206E+04  1.88724E+01  1.44504E+04 -7.02484E+00
  1.43715E+04  3.11477E+01  1.43259E+04  9.72823E+00  1.42055E+04 -1.22098E+01  1.41604E+04 -3.00222E+01
  1.40889E+04 -7.78567E+00  1.39939E+04 -3.14324E+01  1.39529E+04 -1.81393E+00  1.38830E+04 -1.67200E+01
  1.37946E+04  1.20051E+01  1.37642E+04  6.53824E+00  1.36786E+04  4.31003E+00  1.36220E+04  6.05486E+00
  1.35073E+04 -1.90929E+01  1.34606E+04  8.15422E+00  1.33953E+04  5.18391E+00  1.33188E+04 -6.11416E+00
