 $NMID ID='dataset25', FMTDAT='(8E13.5)'
 TRAMP=1, VOLUME=1 $END
  4.54788E+02  1.99395E+02  7.71474E+02  4.46118E+02  4.19625E+02  7.40598E+02 -2.70240E+01  7.76896E+02
 -3.86881E+02  5.89521E+02 -5.90673E+02  2.33625E+02 -5.56691E+02 -1.24509E+02 -3.28998E+02 -3.88942E+02
 -2.38768E+01 -4.64285E+02  2.24867E+02 -3.54775E+02  3.65947E+02 -1.32258E+02  3.26113E+02  1.12050E+02
  1.68152E+02  2.48244E+02 -2.16722E+01  2.88468E+02 -1.78943E+02  1.78921E+02 -2.26886E+02  3.23372E+01
 -1.72853E+02 -9.01760E+01 -6.32595E+01 -1.61334E+02  5.93097E+01 -1.17668E+02  1.08521E+02 -1.29150E+01
  7.94689E+01  8.67346E+01 -2.16380E+01  1.53641E+02 -1.38816E+02  1.29637E+02 -2.13443E+02  2.74310E+01
 -2.18803E+02 -9.59702E+01 -1.36888E+02 -2.02343E+02 -4.57642E-01 -2.38787E+02  1.36565E+02 -1.87543E+02
  2.20633E+02 -8.19610E+01  2.27550E+02  6.29029E+01  1.47212E+02  1.98320E+02  2.01863E+01  2.52058E+02
 -1.15990E+02  2.30745E+02 -2.13209E+02  1.22574E+02 -2.48877E+02 -1.98694E+00 -2.10395E+02 -1.30996E+02
 -1.00108E+02 -2.09239E+02  3.56587E+01 -2.21449E+02  1.45531E+02 -1.64350E+02  2.11787E+02 -6.78084E+01
  2.05490E+02  4.29276E+01  1.53643E+02  1.24134E+02  5.62362E+01  1.81221E+02 -2.59813E+01  1.64787E+02
 -9.37870E+01  1.13953E+02 -1.36289E+02  2.36288E+01 -1.03072E+02 -5.64902E+01 -4.43775E+01 -1.03107E+02
  5.12973E+01 -1.04925E+02  1.14899E+02 -7.29687E+01  1.31509E+02  4.81594E+00  1.06022E+02  8.39764E+01
  3.06177E+01  1.32433E+02 -4.81929E+01  1.37198E+02 -1.24048E+02  8.64892E+01 -1.40560E+02 -1.50191E+01
 -1.12452E+02 -8.56387E+01 -4.84673E+01 -1.40747E+02  3.80476E+01 -1.49985E+02  1.11327E+02 -9.68095E+01
  1.38713E+02 -1.36703E+01  9.63865E+01  5.78385E+01  2.90468E+01  9.79273E+01 -5.18119E+01  1.06073E+02
 -1.00996E+02  4.05402E+01 -1.10696E+02 -3.81310E+01 -7.60165E+01 -1.04047E+02  4.87521E+00 -1.29310E+02
  8.60817E+01 -9.31803E+01  1.25493E+02 -2.79636E+01  9.64289E+01  5.79652E+01  4.49324E+01  1.11348E+02
 -3.89907E+01  1.31373E+02 -1.10269E+02  8.07229E+01 -1.16937E+02  1.36110E+01 -8.92415E+01 -6.73437E+01
 -3.04015E+01 -1.10139E+02  4.17492E+01 -8.22996E+01  9.08122E+01 -3.02538E+01  9.31943E+01  4.18213E+01
  4.27639E+01  9.64437E+01 -4.34729E+01  1.21459E+02 -1.13424E+02  8.50260E+01 -1.35875E+02  9.76296E-01
 -1.16009E+02 -7.87031E+01 -4.00273E+01 -1.51729E+02  3.58160E+01 -1.56062E+02  1.15718E+02 -1.09736E+02
  1.63150E+02 -1.07532E+01  1.41943E+02  6.85501E+01  8.53648E+01  1.36692E+02  1.08787E+00  1.42195E+02
 -7.81910E+01  1.04347E+02 -1.15460E+02  4.46259E+01 -1.03508E+02 -2.76729E+01 -5.59298E+01 -9.16623E+01
  4.22646E+00 -1.05539E+02  7.37336E+01 -5.92350E+01  9.96943E+01 -8.70649E+00  8.65068E+01  3.24399E+01
  3.75837E+01  6.17091E+01 -8.07216E+00  6.44213E+01 -4.44700E+01  4.55036E+01 -4.45913E+01  2.68244E+01
 -3.86872E+01 -1.04638E+01 -2.27864E+01 -2.87649E+01  1.44265E+00 -3.64501E+01  1.96443E+01 -1.15903E+01
  1.39747E+01  9.33511E+00 -4.14722E+00  1.41583E+01 -2.38656E+01  6.19786E-01 -3.67423E+01 -1.27523E+01
 -2.78861E+01 -2.18215E+01 -1.33937E+01 -4.77265E+01  4.39237E+00 -5.54710E+01  3.05920E+01 -4.86386E+01
  4.76810E+01 -2.12604E+01  4.63168E+01  1.63135E+01  3.50954E+01  5.23333E+01  1.95511E+01  6.60469E+01
 -1.44572E+01  6.06717E+01 -5.07962E+01  3.21399E+01 -5.41105E+01  5.97701E+00 -5.96255E+01 -2.48909E+01
 -3.10394E+01 -3.44152E+01 -6.35289E+00 -5.02011E+01  9.78238E-01 -4.48094E+01  3.24140E+01 -1.19477E+01
  2.04968E+01  5.33535E+00  2.25502E+01  6.58447E+00  3.76519E+00  2.14541E+01 -1.83195E+01  2.09789E+01
 -1.99617E+01  4.86333E+00 -1.49503E+01 -3.54942E+00 -1.63280E+01 -2.09570E+01 -2.48424E+00 -2.66791E+01
  3.02059E+01 -2.07969E+01  3.36847E+01 -1.59525E+01  5.22744E+01 -5.64306E+00  4.47887E+01  3.11969E+01
  2.30101E+01  3.07567E+01  1.30419E+01  4.87013E+01 -2.00165E+00  3.14599E+01 -2.43029E+01  3.00779E+01
 -1.74471E+01  1.27572E+01 -2.41619E+01 -1.43410E+00 -1.21059E+01 -3.49056E+00 -6.30478E+00 -3.47772E+00
 -1.51403E+01 -1.45932E+00 -1.72870E+01  7.65370E-01 -1.43935E+01  5.92384E+00 -1.06341E+01 -1.13682E+01
 -1.78810E+01 -1.10009E+01 -1.59932E+01 -3.24803E+01 -1.01727E+01 -2.38425E+01  5.40836E+00 -3.07496E+01
  1.43674E+01 -1.96308E+01  2.77738E+01 -1.20134E+01  3.18299E+01 -7.57085E-01  2.03307E+01  1.29946E+01
 -5.03758E+00  2.66139E+01 -1.61049E+01  1.55348E+01 -1.55316E+01  9.38950E+00 -1.68687E+01  4.09512E+00
 -1.63430E+01 -6.31015E-01 -5.69707E-01 -1.48637E+01  6.10422E+00  2.47190E-01  9.78672E+00 -4.17361E+00
 -1.15312E+01  5.56214E+00 -1.38839E+01  1.51997E+01 -2.25084E+01  1.44870E+01 -2.92593E+01 -1.32947E+01
 -2.23651E+01 -1.01264E+01 -2.02252E+01 -1.72614E+01 -5.21277E+00 -3.43732E+01  2.57607E+00 -3.51765E+01
  2.16148E+01 -3.24272E+01  3.42116E+01 -2.51485E+01  3.81727E+01 -1.95601E+00  2.10348E+01 -1.16328E-01
  2.26483E+01  1.13586E+01  1.43095E+01  1.15430E+01  1.84677E+01  2.88495E+01  7.36647E+00  2.55690E+01
  1.06982E+01  2.01860E+01  5.68058E+00  2.65257E+01 -5.24842E+00  1.46567E+01 -3.23046E+00  2.53713E+01
 -1.58968E+01  2.25606E+01 -1.02356E+01  2.40650E+01 -2.05914E+01  2.29306E+01 -2.28221E+01  1.94680E+01
 -2.32325E+01 -4.45227E+00 -1.51036E+01 -3.00194E+00 -2.49966E+01 -4.43180E+00 -4.80207E+00 -1.94373E+01
  3.73879E+00 -2.36809E+01  4.11419E+00 -1.56705E+01  9.92132E+00 -8.48275E+00  1.53903E+01 -2.12925E+01
  1.60333E+01 -6.41585E+00  2.07362E+01  1.62678E+00  1.54201E+00  6.18180E+00  3.40098E+00  2.83457E+00
  8.23039E+00  1.06805E+00  7.02627E+00 -5.21351E+00 -5.36030E+00 -7.28756E+00  9.24662E+00  1.18470E+01
 -1.59255E-01  8.24884E+00  4.11653E+00  1.27114E+01 -1.88696E+00  7.17905E+00 -1.14199E+01  8.07236E+00
 -1.78447E+01  5.50377E+00 -2.72068E+01  9.66664E+00 -1.48190E+01 -7.64384E+00 -2.38992E+01 -2.30895E+01
 -5.14258E+00 -1.25182E+01 -1.04741E+01 -1.56784E+01  1.24299E+01 -1.35648E+01  1.27987E+01 -4.84770E+00
  1.13540E+01  1.79123E+00  1.46503E+01  3.85134E+00  3.96206E+00  9.13805E+00  1.21917E+00  2.74631E+00
 -3.85088E+00 -2.89497E-01  1.16599E+01 -2.12685E+00  8.68878E-01  4.12966E+00  2.06207E+01 -6.03007E+00
  1.55037E+01  1.41929E+01  5.73997E+00  8.70072E+00  8.84202E+00  2.53908E+01 -8.09956E+00  2.13682E+01
 -1.81842E+01  2.08601E+01 -1.80205E+01  1.42298E+01 -1.08359E+01  6.27878E+00 -9.92161E+00 -1.10949E+01
 -8.72598E+00 -1.00949E+01  8.96859E+00 -4.06491E+00  1.30472E+01 -7.22116E-01  5.78194E-01  5.62621E+00
 -5.74119E+00  6.68530E+00  5.62369E+00  6.26097E+00 -8.88842E+00  1.06086E+01 -1.75618E+01  3.92620E+00
 -2.47956E+00 -1.46381E+01  1.06782E+00 -1.09381E+01 -3.87129E+00 -9.95032E+00  1.66143E+01 -1.63795E+01
  1.42239E+01  6.77986E+00  1.55065E+01  7.96282E-01  1.19683E+01  8.38296E+00 -2.65782E+00  1.83566E+01
 -1.65311E+01  9.09128E+00 -5.81347E+00 -4.53325E+00 -6.78967E+00 -5.50485E+00 -3.71129E+00 -1.97634E+01
  1.51991E-01 -9.28579E+00  7.57896E-01 -1.83016E+01  1.84682E+00 -7.95921E-01  1.23057E+01 -7.81405E+00
  1.35034E+01  6.74262E+00  5.78947E+00  7.89917E+00 -7.43725E+00  6.35161E+00 -1.45511E+01  7.77320E+00
 -5.73314E+00 -3.36038E-01 -4.59239E+00 -1.63715E+01  3.82737E+00 -1.78701E+01  9.43931E+00 -1.82315E+01
  1.80206E+01 -8.79515E+00  1.55956E+01  7.23690E-01  1.33933E+01  1.53119E+01  1.67092E+01  1.85854E+01
  4.73037E+00  1.11192E+01 -6.97324E+00  2.05322E+01 -1.15237E+01  1.56752E+01 -2.32058E+00 -5.07683E-01
 -1.00154E+01  7.77554E+00 -5.22319E+00 -8.69744E+00  7.37250E+00  1.00868E+01 -5.64692E+00  1.52639E+01
 -1.05427E+01  1.74981E+01 -7.48321E+00  8.28225E+00 -1.03857E+01  5.76520E-01 -9.08034E+00  2.63940E+00
 -1.19585E+01 -2.56727E+00 -1.08615E+00 -7.83026E-01 -3.59292E+00 -2.44267E+00 -6.18528E+00  1.99264E+00
  5.08320E+00 -4.04454E-02 -7.93429E+00 -8.08471E+00 -3.54649E+00 -7.42375E+00 -6.31518E+00  6.05901E-01
  2.42989E+00 -1.33009E+01 -3.04120E+00 -1.96791E+01  8.98016E+00 -9.67297E+00  4.52187E+00 -7.69361E+00
  2.12221E+01  9.12587E-01  2.25065E+01 -9.28153E-01  6.41942E+00  1.44719E+01  1.28108E+01  1.61476E+01
 -6.93361E+00  1.44504E+01 -5.79247E+00  1.59433E+01 -1.32127E+01  1.71114E+01 -1.48720E+01 -5.46234E+00
 -1.44852E+01 -1.00989E+01 -5.87843E+00 -1.52102E+01 -1.15560E+01 -9.62232E+00  7.94272E+00 -1.31653E+01
  9.13802E+00  2.57049E+00  8.65218E+00 -2.33246E-01 -1.21124E+01 -4.25294E+00 -1.42514E+01  4.80081E+00
  4.63062E+00 -9.61732E+00  3.73525E+00 -1.53121E+01  4.45027E+00 -2.04973E+01  1.39618E+01 -5.17785E+00
  1.04587E+01 -9.27991E+00  9.27630E+00 -1.44343E+00  1.93001E+01  8.62195E+00  1.19524E+01  1.56833E+01
  1.58907E+01  2.63748E-01  2.69948E+00  1.52067E+01  2.80956E+00  4.94458E+00  6.43779E-01  6.65731E+00
  9.97891E+00  7.43364E+00  1.04782E+01  1.18027E+00  6.26637E-01  7.22285E+00  1.15559E+01  6.48166E+00
 -9.77088E+00  5.06916E+00 -1.51650E+01  1.00407E+01 -1.09838E+01  1.37373E+01 -1.23207E+01  7.77930E+00
 -6.42590E+00 -1.01180E+01 -4.64725E+00 -2.48847E+00  3.29535E+00 -1.49787E+01 -8.63206E-01 -7.42163E+00
  8.04187E+00 -1.03758E+01  1.20696E+01 -2.19601E+00  1.19877E+01  1.20114E+01  7.91246E+00  4.68660E+00
  4.16540E+00 -8.53831E-01 -2.92295E+00  1.91676E-01 -3.13845E+00  7.15509E-01 -6.69239E+00  9.92849E+00
  7.99886E-01  1.38363E+01 -7.37724E+00  7.78217E+00 -1.17044E+01  9.78775E+00 -1.98342E+01  9.80615E+00
 -1.88940E+01  1.27091E+00 -1.87705E+01  2.79413E+00 -1.21192E+01 -1.83578E+01 -2.08171E+01 -2.17071E+01
  7.88448E+00 -1.81537E+01  5.43270E+00 -1.65152E+01  2.16865E+01 -4.74978E+00  1.88473E+01  4.54048E+00
  1.36920E+01  7.07714E-01  6.96794E-01  1.36753E+01 -2.55264E+00  1.73521E+01  5.05385E+00  4.94035E+00
 -1.12226E+01 -4.21178E+00  2.68449E+00 -6.40118E-01  5.66531E+00 -7.21291E+00  1.50612E+01 -9.74410E+00
  1.00359E+01 -4.77424E+00  2.05494E+01  8.81530E+00  5.77584E+00  7.36536E+00  7.72687E+00  2.30046E+01
 -4.15615E+00  2.37443E+01 -1.94529E+01  1.30542E+01 -2.65513E+01 -1.72003E+00 -1.38885E+01 -6.89714E+00
 -2.28486E+01 -3.12177E+00 -6.39043E+00 -1.65614E+00 -1.68301E+00 -1.48811E+01 -5.20080E-01 -2.75525E+00
