 $NMID ID='dataset3', FMTDAT='(8E13.5)'
 TRAMP=1, VOLUME=1 $END
  2.62636E+02  1.02924E+02  4.68776E+02  2.16775E+02  3.23517E+02  3.64921E+02  1.27755E+02  4.15382E+02
 -4.50459E+01  3.83376E+02 -1.72562E+02  2.75120E+02 -2.10577E+02  1.38928E+02 -1.91232E+02  1.79133E+01
 -1.23159E+02 -4.83722E+01 -4.23184E+01 -7.35232E+01  2.11756E+01 -4.13604E+01  4.68332E+01 -6.95903E-02
  4.06559E+01  4.50670E+01  1.50856E+01  7.49421E+01 -1.86516E+01  7.99621E+01 -4.87628E+01  6.89437E+01
 -6.86494E+01  5.18656E+01 -8.16322E+01  2.31525E+01 -7.75341E+01  8.57472E+00 -7.22274E+01 -1.13675E+01
 -6.68702E+01 -3.09473E+01 -5.66393E+01 -5.41166E+01 -3.14596E+01 -6.03736E+01 -3.02960E+00 -6.76258E+01
  1.87820E+01 -5.94633E+01  4.17956E+01 -3.72683E+01  4.83732E+01 -9.66364E+00  3.11827E+01  1.92217E+01
  1.02448E+01  3.44803E+01 -1.98405E+01  3.72412E+01 -3.91124E+01  1.58804E+01 -5.32557E+01 -7.60987E+00
 -4.83038E+01 -4.25491E+01 -2.63152E+01 -6.39527E+01  2.77381E+00 -7.10310E+01  2.96648E+01 -6.27057E+01
  5.08722E+01 -4.33797E+01  6.44366E+01 -2.54622E+01  6.23482E+01 -2.08225E+00  5.95474E+01  1.83769E+01
  4.96122E+01  2.73817E+01  3.09930E+01  3.89954E+01  1.89787E+01  4.42411E+01  7.24118E+00  4.00941E+01
 -1.30989E+01  3.67362E+01 -2.05288E+01  2.23001E+01 -1.96891E+01  1.17415E+01 -1.72489E+01 -2.91774E+00
 -2.62612E+00 -6.26232E+00  3.82632E+00 -5.98785E+00  1.48583E+01  8.12620E+00  1.18695E+01  2.42090E+01
  1.94781E+00  3.40408E+01 -1.33643E+01  3.56795E+01 -3.13092E+01  2.88177E+01 -4.28337E+01  9.85115E+00
 -4.20468E+01 -1.29426E+01 -3.13275E+01 -3.93209E+01 -8.50315E+00 -4.32223E+01  1.64978E+01 -4.49600E+01
  3.79741E+01 -2.82762E+01  4.49995E+01  1.15337E+00  4.13010E+01  2.37410E+01  2.45410E+01  4.30483E+01
  3.96799E+00  4.51684E+01 -1.39891E+01  3.99344E+01 -3.52328E+01  2.49444E+01 -3.75611E+01  9.24144E+00
 -3.75003E+01 -2.49595E+00 -2.69638E+01 -1.60954E+01 -1.76770E+01 -1.82254E+01 -9.65445E+00 -1.63032E+01
 -1.89933E-01 -2.00669E+01  2.35752E+00 -1.65852E+01  7.38519E+00 -1.05113E+01  1.17415E+01 -1.08393E+01
  6.48050E+00  3.46733E-02  9.35277E+00  5.10095E+00 -3.60060E+00  7.19665E+00 -1.33369E+01  7.31779E+00
 -1.99073E+01 -8.51420E-01 -1.70636E+01 -5.69768E+00 -1.32562E+01 -2.05177E+01 -6.59141E+00 -2.67775E+01
  1.11594E+01 -2.58275E+01  2.60910E+01 -1.97791E+01  3.26213E+01 -4.09460E+00  2.94340E+01  1.21148E+01
  2.13642E+01  2.40503E+01  4.02105E+00  2.68522E+01 -9.42662E+00  2.63532E+01 -2.19693E+01  9.72855E+00
 -2.73203E+01 -9.01624E-01 -1.57837E+01 -1.72788E+01 -8.97092E+00 -2.48725E+01  6.49048E+00 -2.34922E+01
  2.02342E+01 -1.94157E+01  2.88550E+01 -6.21164E+00  2.62612E+01  4.07171E+00  2.41493E+01  1.60231E+01
  1.98036E+01  2.30630E+01  5.35408E+00  3.05853E+01 -5.04890E+00  3.11356E+01 -1.40656E+01  2.46834E+01
 -2.36564E+01  2.08731E+01 -2.70551E+01  1.00616E+01 -2.67719E+01  3.17399E-01 -2.19890E+01 -1.10867E+01
 -1.79039E+01 -2.20682E+01 -6.25180E+00 -2.09324E+01  2.50193E+00 -2.05693E+01  1.00727E+01 -9.45007E+00
  1.62824E+01 -3.70302E+00  1.41423E+01  3.46053E+00  4.19499E+00  8.35644E+00 -5.30119E-01  9.27974E+00
 -1.16968E+01  4.63128E+00 -1.19092E+01 -2.52811E+00 -1.20523E+01 -1.38120E+01 -1.91735E+00 -1.69211E+01
  6.27018E+00 -1.31332E+01  1.38123E+01 -1.08156E+01  1.40824E+01 -1.41810E-01  1.41855E+01  4.83326E+00
  8.08732E+00  1.13621E+01  4.99669E+00  1.69474E+01 -5.29246E+00  1.40019E+01 -9.74135E+00  1.53959E+01
 -1.94943E+01  9.51228E+00 -1.65146E+01 -2.24497E+00 -1.24422E+01 -1.15221E+01 -9.84231E+00 -1.55628E+01
 -7.63259E+00 -1.38822E+01 -1.37490E+00 -1.88377E+01  8.00529E+00 -1.50719E+01  9.65996E+00 -1.47516E+01
  1.39822E+01 -3.00032E+00  1.68160E+01  4.06043E+00  1.16429E+01  1.01437E+01  7.17332E+00  1.48745E+01
  5.76356E+00  1.42393E+01 -1.69314E+00  1.25193E+01 -3.03429E+00  8.47210E+00 -1.09113E+01  5.80925E+00
 -5.19051E+00  6.59160E-01 -2.62422E+00  4.36765E-01 -1.59247E+00 -2.65122E+00  5.43781E+00 -1.06250E+00
  4.04516E+00  3.98855E+00 -3.18726E+00  8.38941E+00 -3.25062E+00  9.69159E+00 -8.66615E+00  6.04893E+00
 -1.54733E+01  7.71980E-01 -1.62088E+01 -4.29008E+00 -1.29594E+01 -6.97447E+00 -6.63506E+00 -1.18954E+01
 -5.37684E+00 -1.62740E+01  7.17038E+00 -1.68037E+01  7.00970E+00 -9.05040E+00  1.33049E+01 -1.81792E+00
  1.54951E+01  1.20344E+00  7.47042E+00  9.36119E+00  5.19650E+00  1.24347E+01  3.77205E-02  1.32822E+01
 -3.59523E+00  1.39763E+01 -7.05053E+00  4.43426E+00 -1.19193E+01  4.23547E+00 -1.40505E+01 -5.45187E+00
 -1.13868E+01 -1.34457E+01 -7.72868E+00 -1.24075E+01 -8.23965E-01 -1.47778E+01  6.87688E-01 -1.29514E+01
  8.51765E+00 -1.27936E+01  1.32275E+01 -9.89574E+00  1.08290E+01 -1.16269E+00  1.21726E+01 -7.53939E-01
  9.06529E+00  7.66839E-01  7.22962E+00 -2.96574E+00  1.82441E+00 -9.97953E-01  2.30586E+00  2.33806E+00
  4.79791E+00 -1.24619E+00  6.04842E+00  2.45166E+00  7.81208E+00 -3.03482E-01  9.73724E+00  8.54889E+00
  9.95495E+00  8.77228E+00  6.38455E+00  1.13733E+01  2.67634E+00  1.43695E+01  1.04759E+00  1.00118E+01
 -6.34645E+00  1.41481E+01 -1.11839E+01  4.29809E+00 -1.02220E+01  3.41237E+00 -8.23037E+00 -3.07334E-01
 -1.20125E+01 -6.07855E+00 -1.07042E+01 -6.91005E+00 -4.08227E+00 -7.45602E+00 -1.55325E+00 -4.70317E+00
  1.90883E+00 -6.95044E+00  3.40056E+00 -5.32967E+00  6.97094E+00  3.87758E+00  4.33016E+00  1.35560E+00
 -1.20664E+00  4.58667E+00 -2.23457E+00  3.37641E+00 -5.75582E+00  1.29607E+00 -3.31728E+00 -1.08322E+00
 -6.84948E+00 -2.87773E+00  2.06635E+00 -3.26557E+00 -2.88342E+00 -7.85614E+00 -4.60339E-01 -2.82305E+00
  1.13641E-01  2.55667E+00  2.04897E-01  4.70146E+00 -1.90017E+00 -1.29973E-01  1.78189E+00  1.32129E+00
 -1.22207E+00 -4.40505E-01 -2.76141E+00  5.11960E+00 -3.35969E+00 -4.22270E+00 -7.44276E+00 -5.24674E+00
 -6.96658E+00 -3.85725E+00  2.86995E+00 -4.10497E+00  2.30899E+00 -1.02972E+01  8.07227E+00 -8.53765E+00
  6.55052E+00 -6.13002E-01  9.29753E+00  1.01328E+00  1.15412E+01  2.04029E+00  8.60825E+00  5.75375E+00
  7.28351E+00  6.99011E+00  2.96897E-01  5.99349E+00 -3.46121E+00  8.73933E+00 -6.26739E+00  9.45386E+00
 -1.68900E+00  5.69408E+00 -4.54529E+00  5.79702E-01 -1.23771E+00 -1.00135E+00 -1.35721E+00 -2.65630E+00
 -9.95389E-01 -1.99052E+00 -5.92477E-01 -3.01371E+00 -8.59288E-01 -1.61946E+00  5.03391E+00  4.59550E-01
  4.37736E+00  5.85521E+00  2.40749E+00  4.65042E+00  1.38296E+00  6.50582E+00  2.11798E+00 -6.48857E-01
 -2.09397E+00  3.10264E+00 -3.34042E+00 -2.61310E+00 -2.46004E+00  3.41362E+00  1.90656E+00 -1.33507E-01
  3.89256E+00  2.23429E+00  7.62826E-01 -5.13944E-01 -2.84362E+00  2.90292E+00 -1.37690E+00  4.52299E+00
 -5.34977E+00  5.86314E+00 -3.18735E+00  5.45930E+00 -8.02528E+00 -9.55563E-01 -5.53189E+00 -3.81583E-01
 -2.53291E+00 -5.24846E+00 -6.64217E+00 -6.84788E+00  1.05755E+00 -3.91018E+00 -3.07938E+00 -7.15428E+00
 -1.80545E+00 -6.08836E+00  1.83997E-01 -3.71194E+00  6.03244E+00 -5.14283E+00  7.50924E+00  3.71174E+00
  6.19497E+00  3.59363E+00  3.68392E+00  5.76448E+00 -3.60991E+00  4.94577E+00 -3.77930E-01  1.20153E+00
 -4.15854E+00  1.85875E+00  1.17913E+00  7.76719E-01 -2.95664E+00 -2.24818E-01 -1.47871E+00 -5.59122E+00
  4.52978E+00  1.97785E+00  4.59135E+00  1.97550E+00  8.17811E-01 -1.26041E+00 -6.54372E-01  2.71585E+00
 -8.87313E-02  2.29278E+00  1.69136E-02  4.28540E+00 -1.83143E+00  1.00523E+00 -3.38648E+00  2.29845E+00
 -4.56793E+00  4.48420E+00 -4.78923E+00  3.87949E-02 -3.89381E+00 -2.45879E+00 -8.42959E-01 -3.25720E+00
  3.27909E-02 -6.87811E-01 -3.57134E-01 -4.05323E+00 -3.27633E-01  9.02197E-01  1.38894E+00  5.63161E+00
 -1.39814E+00  3.02856E+00 -1.09299E-01  5.57677E+00 -3.58263E+00  3.10769E+00 -4.51017E+00  6.36781E+00
 -2.23939E+00 -9.64241E-01 -8.02361E+00 -3.72158E+00 -5.05214E+00 -6.13049E+00 -1.11302E+00 -2.93494E+00
 -8.71116E-01 -6.94263E+00  1.00563E+00 -5.92709E+00  6.08694E+00  7.69513E-01  1.40745E-01 -4.02977E+00
  4.44473E+00 -3.34909E+00 -1.00590E+00  2.47172E+00  5.30081E+00  8.06354E-01 -2.80244E+00  1.67545E+00
  1.04049E+00  2.06838E+00 -3.02555E+00 -1.32236E+00 -5.88398E-01  3.89041E+00 -5.34706E+00 -3.05102E+00
 -8.92030E-01 -2.86217E+00 -3.27744E+00 -4.61773E+00 -2.96544E+00  1.37397E+00  1.34693E+00 -1.10594E-01
 -8.50560E-01  3.83803E+00  2.36042E+00 -1.36509E+00 -8.25265E-01  3.31949E+00 -4.76913E-01  1.37557E+00
 -2.81923E+00 -3.11003E+00 -5.39561E+00 -1.61681E+00  1.69928E+00 -1.76857E+00  2.93763E+00 -2.69366E+00
  4.11304E+00 -4.13567E+00 -7.00035E-01 -3.87070E+00 -3.34821E-01 -3.71754E+00  3.06610E+00 -4.89156E-01
  8.23518E-01  9.16324E-02  3.41720E+00  2.04756E+00  4.69119E+00  2.53854E+00 -1.61564E-01  6.06937E-01
  3.34155E+00  4.01045E+00 -4.76442E+00 -1.51611E+00  2.70255E-01  3.81453E+00 -4.72571E+00  1.09892E+00
 -3.48550E+00 -3.62279E+00  1.22833E+00  1.60476E+00 -2.09680E-01  2.08082E+00  3.16981E+00  2.52669E+00
  1.40667E+00  1.37257E+00  3.23581E+00 -7.35216E-01 -1.45481E+00  1.45333E+00 -1.93520E+00  6.15378E-01
  5.16999E-01 -2.79358E+00 -5.14644E+00  3.47953E+00  2.33573E+00 -1.40493E-01 -3.08119E+00  1.99299E+00
 -2.47358E-01 -3.12098E+00  2.52030E+00  2.04690E+00  4.13755E+00  2.36043E+00  2.37147E-02  1.17466E-01
  2.98375E+00  1.79493E+00  1.04447E+00 -9.21226E-01  8.22335E-01  1.23489E+00 -2.85895E+00 -1.34894E-01
  1.70261E+00  3.26263E+00 -5.24732E+00 -3.38628E+00 -3.47014E+00 -3.17967E+00  7.74041E-01 -4.82786E+00
  2.80041E+00 -5.20908E+00 -4.25984E-01  9.60378E-01  3.57691E+00 -3.22702E+00  3.26954E+00  5.20560E-01
  2.78879E+00 -3.25936E+00  6.86491E+00 -2.11263E+00  2.92955E-01  3.26542E+00  3.93432E-01  3.70734E+00
 -2.36826E+00 -1.50584E+00 -1.44827E+00  4.97775E+00  1.51520E+00  3.04088E+00  3.06148E+00 -2.02209E+00
 -2.27486E+00  3.26209E+00 -1.12007E+00  1.52310E+00 -1.90471E+00  3.50206E+00  2.55131E+00 -2.93974E+00
  3.63848E+00  3.66135E+00 -2.54471E+00  6.84206E-01 -2.53242E+00  5.77744E-01 -2.93636E+00  8.70112E-01
 -5.17637E-01 -1.64605E+00 -3.63996E+00 -2.28271E+00  7.61750E-01 -3.36480E+00  3.18639E-01 -4.01039E+00
