 $NMID ID='dataset7', FMTDAT='(8E13.5)'
 TRAMP=1, VOLUME=1 $END
  2.65267E+02  1.07642E+02  4.75576E+02  2.16360E+02  3.25710E+02  3.66843E+02  1.32354E+02  4.32176E+02
 -4.67273E+01  3.92311E+02 -1.74648E+02  2.81386E+02 -2.25576E+02  1.40985E+02 -2.01241E+02  2.05194E+01
 -1.27008E+02 -5.48292E+01 -3.98057E+01 -7.79380E+01  2.18182E+01 -4.93079E+01  5.27751E+01  3.28080E+00
  4.71769E+01  5.03297E+01  1.71277E+01  8.45491E+01 -2.62293E+01  8.81535E+01 -5.46633E+01  7.67277E+01
 -7.53375E+01  5.54763E+01 -8.87648E+01  2.86263E+01 -8.49723E+01  5.67126E+00 -8.43853E+01 -1.44955E+01
 -7.70034E+01 -3.71136E+01 -5.91148E+01 -5.74475E+01 -3.42059E+01 -7.51578E+01 -9.21696E+00 -7.53148E+01
  2.20062E+01 -6.48646E+01  4.45804E+01 -4.00146E+01  5.03942E+01 -8.09451E+00  4.15000E+01  2.12942E+01
  1.00803E+01  3.94894E+01 -2.01178E+01  4.10541E+01 -4.81565E+01  2.05333E+01 -6.10847E+01 -1.40862E+01
 -5.47833E+01 -4.63634E+01 -2.78900E+01 -7.22269E+01  3.49514E+00 -8.24952E+01  3.60472E+01 -7.55975E+01
  6.55235E+01 -6.00155E+01  7.42932E+01 -2.98438E+01  7.89075E+01 -3.38423E+00  7.56298E+01  1.58982E+01
  6.18315E+01  3.78092E+01  4.51106E+01  5.08551E+01  2.59545E+01  5.77684E+01  5.67344E+00  5.48455E+01
 -1.03091E+01  5.09167E+01 -2.36305E+01  3.87556E+01 -2.68631E+01  1.95004E+01 -2.13458E+01  2.03365E+00
 -7.40275E+00 -1.04172E+01  8.34220E+00 -5.95282E+00  2.12413E+01  5.51118E+00  1.77342E+01  2.42776E+01
  6.04356E+00  3.99065E+01 -2.06108E+01  4.85110E+01 -4.46025E+01  3.92000E+01 -6.25735E+01  1.08291E+01
 -6.26008E+01 -1.93577E+01 -4.39082E+01 -5.31454E+01 -8.51164E+00 -6.61153E+01  2.93185E+01 -6.24576E+01
  5.78994E+01 -3.55590E+01  6.71642E+01 -4.28686E+00  6.06421E+01  3.36507E+01  3.40067E+01  5.64754E+01
  5.40961E-01  6.45964E+01 -2.78853E+01  5.56582E+01 -4.79699E+01  3.77437E+01 -5.22685E+01  1.27062E+01
 -4.98504E+01 -6.35567E+00 -3.81146E+01 -1.64870E+01 -2.88021E+01 -2.41020E+01 -1.78608E+01 -2.57576E+01
 -7.06789E+00 -2.97465E+01 -3.79749E-01 -2.38621E+01  8.35800E+00 -2.13109E+01  1.39909E+01 -1.19069E+01
  1.71401E+01 -1.14179E+00  1.15670E+01  9.16939E+00  3.19207E+00  1.71056E+01 -1.32279E+01  1.47362E+01
 -2.63540E+01  4.88286E+00 -2.95788E+01 -1.01882E+01 -2.55907E+01 -3.05759E+01 -6.46009E+00 -4.53667E+01
  1.52308E+01 -4.73929E+01  3.72257E+01 -3.38166E+01  5.06505E+01 -1.19696E+01  4.83454E+01  1.53010E+01
  3.43455E+01  3.68857E+01  6.67821E+00  4.76501E+01 -1.99586E+01  4.08710E+01 -3.51587E+01  2.09052E+01
 -3.79687E+01 -6.54000E+00 -2.85808E+01 -2.55225E+01 -1.05753E+01 -4.27931E+01  1.51295E+01 -4.32626E+01
  3.44248E+01 -3.31789E+01  5.02268E+01 -9.52111E+00  4.97814E+01  1.01177E+01  4.07546E+01  2.74677E+01
  2.36583E+01  4.40183E+01  8.36465E+00  4.74469E+01 -1.06292E+01  5.16749E+01 -2.63752E+01  4.46130E+01
 -3.96778E+01  3.11811E+01 -4.83887E+01  1.67928E+01 -4.92664E+01 -1.09180E+00 -3.96683E+01 -1.77299E+01
 -2.93394E+01 -3.49119E+01 -1.17076E+01 -3.92894E+01  9.78341E+00 -3.68802E+01  1.87706E+01 -2.28626E+01
  2.75992E+01 -7.42821E+00  1.87898E+01  5.72012E+00  1.00389E+01  1.90856E+01 -6.63769E+00  1.72958E+01
 -1.57634E+01  1.14551E+01 -2.38562E+01 -1.92769E+00 -1.92380E+01 -1.97347E+01 -6.63426E+00 -2.75030E+01
  1.12034E+01 -2.71203E+01  2.68025E+01 -2.05172E+01  3.42021E+01 -2.10862E+00  3.15687E+01  1.38970E+01
  1.95914E+01  2.79784E+01  7.02908E+00  3.34425E+01 -8.18137E+00  2.98612E+01 -2.04695E+01  2.37642E+01
 -2.92909E+01  1.08412E+01 -3.24322E+01 -4.51220E+00 -2.40426E+01 -1.22084E+01 -2.12591E+01 -2.40483E+01
 -6.86803E+00 -2.92714E+01  4.19600E+00 -3.26423E+01  1.20233E+01 -2.82312E+01  2.38001E+01 -2.51061E+01
  3.23111E+01 -1.43129E+01  3.52862E+01  1.11922E+00  3.14695E+01  1.31712E+01  2.30156E+01  2.21548E+01
  8.32016E+00  2.96971E+01 -1.94446E-01  2.66345E+01 -1.44176E+01  2.07631E+01 -1.48461E+01  9.50161E+00
 -1.73985E+01  8.76842E-01 -7.54551E+00 -4.77153E+00 -2.59719E+00 -6.16836E+00  1.99170E+00 -8.80000E-01
  6.75828E+00  5.25078E+00  5.83189E-01  1.57375E+01 -7.53079E+00  1.62467E+01 -1.51933E+01  1.69583E+01
 -2.57610E+01  7.08704E+00 -2.95851E+01 -4.75738E+00 -2.42390E+01 -1.46446E+01 -1.85736E+01 -2.33290E+01
 -4.49940E+00 -2.82194E+01  1.00921E+01 -3.16178E+01  1.89963E+01 -2.42505E+01  2.57733E+01 -1.19240E+01
  2.74611E+01  4.48969E-01  2.08794E+01  1.30505E+01  1.20052E+01  2.24382E+01  1.58799E+00  3.04754E+01
 -1.48430E+01  2.69333E+01 -2.46798E+01  2.10461E+01 -3.19635E+01  6.44952E+00 -3.36173E+01 -6.75465E+00
 -2.86121E+01 -2.45897E+01 -1.76444E+01 -3.26259E+01 -6.15140E+00 -3.47797E+01  8.80573E+00 -3.61930E+01
  2.17241E+01 -2.93438E+01  2.47107E+01 -1.96924E+01  2.75461E+01 -9.01331E+00  2.02374E+01  1.57575E+00
  1.98188E+01  4.62120E+00  1.48466E+01  3.27520E+00  8.64390E+00  2.98381E+00  9.59706E+00  1.88138E+00
  1.53076E+01 -1.00743E-01  1.58681E+01 -1.27143E-01  2.03070E+01  5.16577E+00  1.79355E+01  1.58938E+01
  1.63094E+01  2.04762E+01  7.53370E+00  2.76769E+01  1.92552E-01  2.86211E+01 -5.94937E+00  3.01886E+01
 -1.81920E+01  2.39455E+01 -2.19387E+01  1.72060E+01 -3.01348E+01  8.49257E+00 -2.85469E+01 -5.06655E-01
 -2.27361E+01 -9.55409E+00 -1.69574E+01 -1.56371E+01 -1.03946E+01 -1.94770E+01  1.93603E+00 -2.14901E+01
  1.01612E+01 -1.51562E+01  1.25968E+01 -1.12189E+01  1.58154E+01 -5.27850E-01  8.91211E+00  7.11625E+00
  3.74650E+00  1.17364E+01 -2.93189E+00  1.24408E+01 -6.22464E+00  5.96430E+00 -8.64107E+00  1.17282E+00
 -1.19920E+01 -3.39294E+00 -6.34760E+00 -9.94787E+00  1.74837E+00 -8.53294E+00  7.56393E+00 -8.30550E+00
  7.16796E+00 -5.33593E+00  7.18811E+00 -6.76099E-01  3.06792E+00  5.41100E+00 -1.89288E+00  6.87736E+00
 -7.54689E+00  6.78568E+00 -1.11224E+01  3.86192E+00 -1.20343E+01 -3.08124E+00 -1.05843E+01 -1.20660E+01
 -9.25766E+00 -1.74377E+01  1.43869E+00 -1.91762E+01  4.75841E+00 -2.15960E+01  1.46928E+01 -1.66790E+01
  1.95880E+01 -9.45614E+00  2.39806E+01 -4.27107E-01  2.53544E+01  8.75921E+00  2.15619E+01  1.71110E+01
  1.19257E+01  2.07849E+01  4.75086E+00  2.65277E+01 -5.37026E+00  2.32752E+01 -1.52366E+01  1.66623E+01
 -1.79078E+01  8.35369E+00 -1.70123E+01  1.01012E+00 -1.32330E+01 -8.22275E+00 -9.59918E+00 -1.22203E+01
 -2.37498E+00 -9.75376E+00  6.14661E+00 -6.51650E+00  1.00711E+01 -2.98428E+00  1.11596E+01  2.98533E+00
  8.90307E+00  3.35435E+00  2.77617E+00  9.92330E+00 -1.25289E+00  8.08007E+00 -5.48253E+00  7.25972E+00
 -2.18950E+00  2.84587E+00 -5.64828E+00  7.96768E-01 -4.73382E+00 -1.63893E+00 -1.75445E+00  2.94198E+00
 -4.30499E-01  2.87519E+00 -4.38738E-02  3.16740E+00 -2.61946E+00  6.52291E+00 -1.92728E+00  9.88848E+00
 -8.88860E+00  1.03576E+01 -1.19022E+01  7.07745E+00 -1.65411E+01  5.12088E+00 -1.59152E+01 -3.17272E+00
 -1.91850E+01 -6.86757E+00 -1.81358E+01 -1.46822E+01 -1.05665E+01 -1.83866E+01 -2.37100E+00 -2.08989E+01
  7.11377E+00 -2.00935E+01  1.54687E+01 -1.31682E+01  1.57740E+01 -8.95848E+00  1.67036E+01 -5.29687E-01
  9.71894E+00  4.86260E+00  2.55191E+00  1.09923E+01  5.10420E-01  8.94041E+00 -6.13818E+00  3.95992E+00
 -8.47699E+00 -1.01247E+00 -2.01957E+00 -4.67149E+00 -7.44718E-01 -6.63597E+00  1.53455E+00 -8.03367E+00
  7.74628E+00 -3.95191E+00  9.05808E+00 -4.87881E+00  1.18631E+01  8.76314E-01  9.93148E+00  8.04958E+00
  6.55523E+00  1.21621E+01  4.18613E-01  1.08863E+01 -4.55920E+00  8.87517E+00 -4.78881E+00  9.65347E+00
 -5.77920E+00  3.04771E+00 -8.00560E+00 -8.97243E-01 -5.28077E+00 -2.82269E+00 -3.47294E+00 -9.25420E+00
  2.07080E+00 -8.85398E+00  9.36112E+00 -7.86941E+00  8.81471E+00 -1.44190E+00  8.83915E+00  7.19218E+00
  5.40561E+00  1.10262E+01  1.32858E-01  1.63775E+01 -5.29498E+00  1.26467E+01 -1.05310E+01  1.10604E+01
 -1.69612E+01  7.94080E+00 -1.66859E+01 -2.35915E+00 -1.53491E+01 -1.06328E+01 -1.26629E+01 -1.59169E+01
 -1.46699E+00 -1.70338E+01  1.98288E+00 -1.49309E+01  9.48620E+00 -9.44652E+00  1.08375E+01 -6.77288E+00
  1.28593E+01  1.60086E+00  1.05010E+01  4.23911E+00  7.05870E+00  7.66285E+00  3.26561E+00  1.02095E+01
 -4.11799E-01  1.00269E+01 -2.51825E+00  8.64574E+00 -4.57961E+00  6.06045E+00 -6.10439E+00  5.45669E+00
 -8.04312E+00 -1.56389E+00 -6.96612E+00 -5.10080E+00 -4.05041E+00 -5.33370E+00 -2.49855E+00 -5.47571E+00
 -8.24439E-01 -4.07711E+00  2.71034E-01 -9.14121E-01 -3.67476E+00  2.43363E+00 -6.31872E+00  3.25469E+00
 -6.22439E+00  9.51575E-01 -9.37877E+00 -4.67863E+00 -8.34676E+00 -6.88159E+00 -3.83181E+00 -9.48929E+00
  1.14579E-01 -1.32998E+01  5.94266E+00 -1.46211E+01  1.29602E+01 -7.71520E+00  1.65158E+01 -2.03603E+00
  1.68850E+01  2.42639E+00  9.94984E+00  7.34249E+00  7.44927E+00  1.13231E+01  3.14362E+00  1.40472E+01
 -9.57094E-01  1.16755E+01 -6.46442E+00  5.44933E+00 -2.98452E+00  2.96920E+00 -2.73872E+00  1.56336E+00
 -5.20120E+00 -3.26311E-01 -2.78356E+00 -1.15574E+00 -3.53045E+00  1.28607E+00 -1.10003E+00  1.07819E+00
 -2.95826E+00  4.30036E+00 -1.38170E+00  3.85139E-01 -2.41586E+00  9.14983E-01 -3.46985E+00  7.24767E-01
 -4.02620E+00  2.89047E+00 -4.93846E+00 -2.07282E+00 -4.74603E+00  3.10021E-01 -3.33069E+00 -5.68040E+00
 -4.47522E+00 -6.73467E+00 -4.46638E-01 -4.52608E+00  4.74231E-01 -2.70027E+00  3.84097E+00 -7.12940E-01
  4.28192E+00 -1.63636E-01  7.30648E-01  5.42829E+00  9.49881E-01  3.47144E+00 -2.52102E+00  7.46477E+00
 -8.86279E+00  3.60223E+00 -1.29977E+01 -1.14194E+00 -1.12615E+01 -9.92222E+00 -4.80110E+00 -1.00620E+01
 -2.79430E+00 -1.60994E+01  1.59980E+00 -1.46201E+01  6.87507E+00 -1.66782E+01  1.23820E+01 -1.17771E+01
  1.33350E+01 -1.73436E+00  1.45679E+01  3.96911E+00  1.09489E+01  4.90132E+00  7.58265E+00  1.12001E+01
  5.95574E+00  1.17083E+01  1.02195E+00  1.26455E+01 -2.48827E+00  6.84859E+00 -3.61258E+00  5.82422E+00
 -4.19484E+00  5.80214E+00 -4.37839E+00  4.40729E+00 -2.72792E+00  2.57198E+00 -1.32094E+00  5.18565E+00
  3.05507E-01  2.65259E+00 -1.67415E+00  7.01395E+00 -6.01941E+00  3.55328E+00 -7.45000E+00  2.59581E+00
 -9.87960E+00  4.29313E+00 -1.23799E+01 -5.84437E-01 -1.11629E+01 -4.34267E+00 -6.85483E+00 -9.27587E+00
