 $NMID ID='dataset14', FMTDAT='(8E13.5)'
 TRAMP=1, VOLUME=1 $END
  2.30824E+02  7.89148E+01  4.35893E+02  1.90543E+02  3.07931E+02  3.29858E+02  1.36778E+02  3.57709E+02
 -4.22094E+01  3.58586E+02 -1.41965E+02  2.49976E+02 -1.95865E+02  1.57260E+02 -1.67771E+02  4.81005E+01
 -1.27567E+02 -1.03932E+01 -4.34367E+01 -4.06689E+01 -4.57405E+00 -2.51514E+01  1.88857E+01 -1.26127E+01
  3.25625E+01  4.40695E+01 -1.34269E+01  5.17716E+01 -4.47666E+01  9.33976E+01 -5.73453E+01  6.74284E+01
 -5.53631E+01  4.59264E+01 -7.37732E+01  4.28230E+01 -8.73900E+01 -1.42339E+01 -7.68625E+01 -1.88681E+01
 -7.41828E+01 -4.88781E+01 -5.49075E+01 -4.39472E+01 -2.69761E+01 -7.75328E+01 -4.66053E+00 -6.34414E+01
  3.87417E+01 -5.75511E+01  3.55192E+01 -3.22626E+01  3.99069E+01 -8.04911E+00  3.83866E+01  1.17543E+01
  2.15235E+01  4.76322E+01 -8.91267E+00  1.83891E+01 -4.28261E+01  3.08489E+00 -4.28918E+01 -1.64863E+01
 -3.82845E+01 -4.67105E+01 -4.41715E+01 -5.32652E+01 -1.97940E+00 -9.11696E+01  4.75939E+01 -5.69836E+01
  5.80459E+01 -6.28224E+01  6.36716E+01 -3.63824E+01  8.35548E+01 -8.96837E+00  7.47150E+01  1.93904E+01
  5.56875E+01  2.94384E+01  5.63482E+01  6.22752E+01  2.02906E+01  6.85007E+01  2.49144E+01  4.06418E+01
 -2.41692E+01  6.22708E+01 -1.62720E+01  1.51891E+01 -3.82753E+01  3.10623E+01 -9.62510E+00 -1.44193E+01
 -1.25784E-01 -2.35594E+01 -8.76694E+00 -3.30135E-02 -5.47767E+00  5.02594E-01  1.99585E+01  1.62152E+01
  2.08595E+01  3.78067E+01 -3.68307E+01  2.47971E+01 -3.96058E+01  2.46707E+01 -4.72217E+01  1.56730E+00
 -5.26778E+01 -8.96345E+00 -4.74845E+01 -4.78031E+01 -1.41618E+01 -4.80741E+01  1.92065E+01 -6.58828E+01
  4.05435E+01 -3.07460E+01  5.76596E+01 -5.81353E+00  5.11608E+01  2.40300E+01  3.19624E+01  5.28267E+01
  1.55049E+01  7.61277E+01 -1.89365E+01  5.71447E+01 -2.32086E+01  5.68682E+01 -5.40650E+01  3.68905E+01
 -3.74732E+01 -5.16049E+00 -3.01035E+01 -2.63490E+01 -4.04725E+01 -2.44911E+00 -2.65128E+01 -1.69357E+01
 -4.91260E+00 -3.94298E+01 -6.37547E+00 -3.96756E+00 -7.04201E+00 -1.66970E+01  2.60112E+01  1.32011E+00
  2.65762E+01  7.05375E-01  2.15205E+01 -6.40529E+00  8.50107E+00 -5.96569E+00 -6.85897E+00  1.54376E+01
 -4.00629E+01 -1.78261E+01 -5.67442E+00 -3.20895E+01 -1.53900E+01 -2.73737E+01 -1.00999E+01 -5.64153E+01
  1.33014E+01 -3.42851E+01  2.22927E+01 -2.96457E+01  2.66560E+01 -2.71304E+01  3.17927E+01  1.73782E+01
  4.58701E+01  3.78555E+01 -3.32993E+00  4.08412E+01 -2.22161E+01  3.55169E+01 -1.42641E+01  1.46724E+01
 -4.84426E+01 -1.13851E+01 -4.13797E+01 -2.62637E+01 -1.17414E+01 -4.74537E+01  1.59383E+01 -2.20496E+01
  2.95894E+01 -4.08052E+01  3.64068E+01  2.82312E+00  4.70474E+01 -4.49138E+00  5.05493E+01  1.08777E+01
  3.63429E+01  4.63339E+01  1.94155E+01  4.78385E+01 -1.49245E+01  5.14408E+01 -2.84116E+01  5.30338E+01
 -2.37972E+01  5.07921E+01 -3.85343E+01  2.28372E+01 -5.55171E+01 -1.23781E+01 -5.12247E+01 -2.73382E+01
 -1.33091E+01 -3.61927E+01 -2.38838E+01 -2.87293E+01  2.11893E+01 -4.27507E+01  2.94756E+00 -1.43634E+01
  3.37322E+01 -3.24918E+00  2.93315E+01  1.47309E+01  1.86616E+01 -1.48878E+00 -2.01447E+01  1.03739E+01
 -9.75774E+00  7.31302E+00  3.09949E+00  9.96801E+00  5.48458E+00 -1.06741E+01 -1.62862E+01 -1.28202E+01
 -5.49594E+00 -1.55672E+01  3.69472E+01  1.30901E+00  3.13260E+01 -1.58078E+01  2.61476E+01  9.92336E+00
  1.08074E+01  4.15190E+01  1.17352E+01  2.73697E+01 -1.20651E+01  1.03429E+01 -2.25517E+01  8.40919E+00
 -8.94624E+00  8.83931E+00 -4.77265E+01 -1.11021E+01 -1.25606E+01  4.88070E-01 -1.79750E+01 -7.80539E+00
 -1.34668E+01 -2.24878E+01  1.91317E+01 -2.07177E+01 -3.61378E+00 -4.13069E+01  1.53269E+00 -2.33372E+01
  3.30771E+01 -3.32243E+01  2.90414E+01  1.52584E+01  4.45716E+01  6.69278E+00  1.28829E+01  1.24225E+01
  1.88036E+01  4.48325E+01  3.10489E-01  4.29177E+01 -2.55926E+01  1.08239E+01 -2.84220E+01  2.45052E+01
  1.01579E+00 -1.35816E+00 -2.51478E+01  1.41094E+01 -5.66362E+00 -1.94159E+01  1.89715E+01 -1.82618E+00
  2.40883E+00  2.71515E+01 -5.71529E+00  7.81001E+00 -2.89771E+01  1.31243E+01 -3.32392E+01  2.07195E+01
 -1.71120E+01 -6.62678E+00 -2.82703E+01  7.02027E+00 -2.49636E+01 -3.46122E+01 -1.04844E+01 -1.52597E+01
 -1.48131E+01 -1.44986E+01 -6.15194E-01 -3.66045E+01  3.70706E+01 -4.28343E+00  9.66089E+00 -2.88680E+01
  1.17312E+01  2.83917E+00  1.75518E+01 -1.79418E+00  3.19551E+00  3.53941E+01 -5.53715E+00  4.06433E+01
  1.42651E+00  1.85069E+01 -7.78185E+00  3.18866E+01 -3.09513E+01 -3.20732E+00 -2.28386E+01  2.18588E-02
 -4.39227E+01 -1.59464E+01 -1.38665E+01 -1.95822E+01 -1.66165E+01 -4.07381E+01  1.73320E+00 -3.58543E+01
  3.06700E+01 -4.72378E+01  2.26344E+01 -2.25734E+01  2.75486E+01 -4.17424E+00  2.67470E+01  1.20581E+01
  3.75689E+01 -1.00067E+01  2.56004E+00 -5.47221E+00  3.00053E+01 -4.19167E+00  2.84425E+01 -1.53992E+01
  3.03504E+01 -9.76692E+00  9.42926E+00  1.86133E+01  3.47511E+01 -3.03511E+00  2.37209E+01  1.82658E+01
  2.16607E+01  1.02555E+01  5.39924E+00  1.23975E+01 -1.46241E+01  2.55497E+01  9.47939E+00  1.82715E+01
 -1.04811E+01  1.55619E+01 -2.66276E+01  1.19520E+01 -2.57036E+01  1.12480E+01 -3.58333E+01  1.10669E+01
 -4.48433E+01 -2.75236E+00 -3.45940E+01 -1.96165E+01 -8.84729E+00 -2.76558E+01  1.12942E+01 -5.38683E+00
  1.14491E+01 -1.22974E+01 -7.02252E+00  5.73169E+00  1.23125E+01  4.07985E+00  2.70202E+01  3.22047E+00
 -9.76802E+00 -1.19230E+01 -9.89378E+00 -1.08284E+01 -7.55472E+00 -1.19909E+01 -2.22801E+01  7.88905E+00
 -1.70826E+01  1.03855E+01  1.43890E+01 -2.70760E+01 -3.44458E+00  6.84944E+00 -6.56429E-01 -1.86181E+01
  1.22195E+01 -1.11732E+00 -2.25286E+00 -3.24580E+00  1.63569E+00  4.38496E+00  3.54229E+00 -7.66108E+00
 -1.59615E+01  1.05191E+01 -1.59888E+01  2.50125E+00  3.42566E+00  1.21486E+01 -9.67326E+00 -2.36166E+01
 -1.23587E+01 -2.16501E+01 -5.04878E+00 -3.80073E+01  1.48950E+00 -1.96497E+01  8.43073E+00 -1.72715E+01
  1.31785E+01  6.05352E+00  2.81830E+01 -7.82088E+00  4.27727E+01  2.32994E+01  3.42295E+01  1.01854E+01
  2.44939E+01  1.54036E+01 -4.33824E+00  3.16556E+01  3.43742E+00  3.20156E+01 -2.77776E+01  5.20877E+00
 -3.06997E+01  6.22748E-01 -1.20712E+01 -2.21513E+00 -7.57744E+00 -3.94679E+00 -1.93014E+01 -2.40491E+01
 -8.44237E+00 -4.95120E+00 -9.27903E+00  6.41135E+00 -1.88677E+00  1.59027E+01  2.53167E+01  2.86464E+00
  3.04626E+00  2.46533E+01  4.74833E+00  1.40222E+01  1.54053E+01  1.85493E+01 -3.65419E+00  1.78252E+01
 -2.37805E+00 -9.72351E+00  1.64927E+01  7.49876E+00 -1.40822E+01 -1.55142E+01 -1.72755E+01  3.73634E+00
  3.15635E+00 -9.44935E+00 -8.38771E+00  1.74981E+01 -1.27540E+01  1.65267E+00  1.01720E+01  2.15867E+01
 -2.76657E+01  2.86528E+00 -7.67875E+00  1.36312E+01 -2.57259E+01 -3.60572E+00 -5.10754E+00  1.36653E+01
 -3.56723E+01  9.39455E+00 -1.09759E+01 -1.58227E+01  8.46036E-01 -2.48506E+00  1.17975E+01 -6.53491E+00
  7.91176E+00 -1.07085E+01 -4.22210E+00 -2.80388E+01  2.36050E+01 -1.54774E+01 -3.03101E+00 -2.16650E+01
 -2.57826E+00  6.45010E+00  7.58495E+00  1.86516E+01 -1.03076E+00  1.13446E+01 -4.44855E+00  1.90900E+01
 -1.47119E+01 -4.49339E+00 -8.78441E+00 -1.56590E+01  1.10637E+01 -5.99879E+00 -2.87589E+00 -1.47628E+01
  5.58742E+00 -1.74480E+00  5.47126E+00 -2.50689E+00  2.59104E+01  2.73717E+00 -3.57460E+00  1.89488E+00
  2.30941E+01 -3.07362E+00 -8.56341E+00  1.25520E+01  5.82971E+00  1.51706E+01 -1.92449E+01  7.47837E+00
 -1.61535E+01 -6.45921E-01  2.00073E+00  4.23590E+00 -2.01154E+01 -1.82273E+01  1.39641E+01 -6.70930E+00
  1.60651E+01 -1.63725E+01  1.80440E+01  1.66463E+01  2.39814E+01 -6.96691E+00  2.28234E+01  2.07264E+01
 -1.28198E+01 -5.72439E+00 -9.67411E+00  9.37015E+00 -9.76749E+00  8.31965E+00 -2.71782E+01  5.13921E+00
 -7.11979E+00  2.10738E+01 -1.76882E+01 -3.48736E+00 -1.29097E+01 -1.48958E+01 -1.62376E+01 -8.38586E+00
 -6.75035E+00 -2.61403E+00 -1.56582E+01 -2.27322E+00  1.90297E+01 -1.47778E+01  2.47539E+00 -1.16000E+01
  1.37276E+01  3.53175E+00  2.79530E+01 -2.50716E+00  1.19071E+00 -9.11746E+00  2.09826E+01  2.62070E+01
  1.66318E+01  1.43981E+01  4.54559E+00 -2.71324E+00 -3.93870E-01  7.51624E+00 -1.97993E+01 -4.62507E+00
 -2.54745E+00 -1.12941E+00 -1.98707E+01  1.08215E+00 -9.77856E+00  1.17621E+01  2.60938E-01  1.17183E+01
 -1.84480E+01  8.05087E+00 -1.40604E+01 -1.37978E+01  1.22166E+01 -7.14434E+00  2.92785E+00  1.01957E+01
 -2.54521E+01  7.06965E+00  5.32857E+00  2.83365E+00 -8.68641E+00 -1.34599E+01 -2.07152E+01 -2.09288E+01
  2.17950E+01 -1.67773E+01 -4.01044E+00 -2.10396E+01  1.49528E+01  5.70264E+00  1.05070E+01  9.28208E+00
  3.48601E+01 -1.04439E+01  5.30553E-01  6.41269E+00  1.25118E+01 -4.03549E+00 -7.08549E+00  2.17333E+01
 -1.31117E+01  2.45564E+00 -6.23393E+00  2.43830E+01  8.55075E+00 -9.09739E+00  7.52926E+00  2.30320E+01
 -1.44164E+01  1.45061E+00 -9.77127E-01 -1.65655E+01 -1.08948E+01 -1.09997E+01  6.09999E+00  3.67787E+00
 -9.12292E+00 -5.82764E+00  8.12109E+00 -1.76246E+01 -1.69377E+00 -1.77935E+01 -1.67332E+01  1.84188E+01
 -1.92097E+01 -4.50600E-02 -1.25430E+01 -1.56334E+00 -9.26584E+00 -1.35730E+01  2.05479E+00  6.79786E+00
 -1.81549E+01  3.55782E+00 -2.79438E+00  1.09745E+01  3.17185E+00 -8.46697E+00  1.16535E+01  1.53555E+01
  1.00759E+01  7.26850E+00 -7.23475E+00  1.74965E+01  1.14223E+01 -1.52856E+01 -1.09765E+01  9.51093E+00
  5.60013E+00  8.05454E-01  8.16902E+00  1.44962E+01 -1.62340E+01 -2.84403E+01 -1.35391E+01 -3.25987E+01
 -1.78288E+01 -9.71112E+00  6.36707E+00 -1.47324E+00  6.42418E+00 -3.15135E+01  6.93897E+00 -2.70133E+01
  2.81928E+01 -2.55668E-01  2.00522E+01 -2.34639E+00  1.69937E+01  2.48466E+01  2.66682E+01  2.62471E+01
  1.47329E+01  1.09237E+01  2.03520E+00  2.87164E+01  5.86478E+00  7.69329E-01 -1.62079E+01  4.91208E+00
 -6.67769E+00  2.15774E+01  4.06446E-01  2.69096E+00  6.86097E+00 -5.72718E+00 -1.37844E+01  7.94674E+00
  6.82607E+00 -4.80861E+00  1.26992E+00  8.22412E+00 -5.94984E-01 -3.31778E+00  6.83968E+00  6.71130E+00
 -1.33298E+01  1.64222E+01 -1.17734E+01  5.52343E+00 -1.41691E+01 -1.03162E+01 -2.69438E+01  9.65793E+00
