 $NMID ID='dataset2', FMTDAT='(8E13.5)'
 TRAMP=1, VOLUME=1 $END
  4.15975E+04 -1.02107E+01  4.13095E+04 -1.32236E+01  4.10318E+04 -1.51878E+00  4.07504E+04  1.29496E+01
  4.04317E+04 -1.73909E+01  4.01707E+04 -9.18606E-01  3.98981E+04 -6.70791E+00  3.96047E+04  2.71811E-01
  3.93287E+04  1.46856E+01  3.90597E+04 -3.84738E+00  3.87595E+04 -1.79844E-02  3.85104E+04  1.34935E+01
  3.82207E+04  5.07939E-01  3.79441E+04 -1.79684E+01  3.76788E+04 -2.88530E+00  3.74316E+04  1.55526E+01
  3.71637E+04 -8.31097E+00  3.68916E+04  1.36743E+01  3.66301E+04  2.00682E+00  3.63797E+04  2.11808E+00
  3.61382E+04  4.72069E+00  3.58516E+04 -9.48859E+00  3.56020E+04  7.26223E+00  3.53494E+04  1.16748E+01
  3.51122E+04  9.60542E+00  3.48634E+04 -1.81230E+01  3.46289E+04  3.46867E+00  3.43664E+04  3.88841E+00
  3.41269E+04 -5.41051E+00  3.39009E+04  9.59442E+00  3.36428E+04 -1.18136E+01  3.34373E+04  9.47910E+00
  3.31744E+04  4.88589E+00  3.29552E+04  5.81797E+00  3.27242E+04 -2.42228E-01  3.24880E+04  1.39084E+01
  3.22739E+04  1.26885E+01  3.20176E+04  1.59079E+01  3.18168E+04  4.28882E+00  3.15691E+04  1.02749E+01
  3.13623E+04 -2.03696E+00  3.11276E+04  7.09996E+00  3.09391E+04  1.52601E+01  3.07074E+04 -4.34091E+00
  3.04792E+04  1.37472E+01  3.02611E+04  1.28134E+01  3.00661E+04  1.77068E+00  2.98553E+04  1.71113E+01
  2.96334E+04 -2.00071E+00  2.94239E+04  1.76738E+01  2.92063E+04  3.17047E+00  2.90146E+04  1.27919E+01
  2.88162E+04  6.98465E+00  2.85938E+04  8.81440E+00  2.84180E+04 -1.56380E+01  2.82065E+04  2.08993E+00
  2.79922E+04  9.19595E+00  2.78092E+04 -1.79523E+01  2.76119E+04  7.44921E+00  2.74172E+04  6.91957E+00
  2.72444E+04 -9.29613E+00  2.70314E+04 -6.79281E+00  2.68270E+04  1.74299E+01  2.66419E+04 -1.25174E+01
  2.64817E+04 -1.08966E+01  2.62690E+04  1.27086E+01  2.60822E+04  1.98324E+00  2.59213E+04 -1.33073E+01
  2.57197E+04 -1.32409E+01  2.55514E+04 -1.61142E+01  2.53672E+04 -1.60096E+01  2.51930E+04 -1.71840E+01
  2.50000E+04  1.42623E+01  2.48237E+04  1.03025E+01  2.46536E+04  8.21597E+00  2.44983E+04 -7.12410E+00
  2.43138E+04 -1.67903E+01  2.41448E+04 -3.54703E+00  2.39863E+04  9.00012E+00  2.38036E+04 -1.67124E+01
  2.36414E+04 -1.25144E+01  2.34886E+04 -1.29260E+00  2.32939E+04  1.46736E+01  2.31437E+04  6.15740E+00
  2.29905E+04 -2.21203E+00  2.28342E+04 -9.54437E+00  2.26433E+04 -9.07088E+00  2.24806E+04  3.20689E+00
  2.23435E+04 -4.89970E+00  2.21959E+04 -4.07407E+00  2.20336E+04  3.58585E+00  2.18547E+04  2.38527E+00
  2.17273E+04 -1.29450E+01  2.15731E+04 -5.30498E-02  2.13988E+04  9.66905E+00  2.12679E+04 -4.08002E+00
  2.11046E+04 -3.50705E+00  2.09474E+04 -4.41226E+00  2.08240E+04  1.05825E+01  2.06550E+04  9.66212E+00
  2.05328E+04  8.21587E-01  2.03829E+04 -1.19122E+01  2.02340E+04  7.03637E+00  2.00796E+04 -1.79297E+01
  1.99559E+04 -1.67223E+01  1.98196E+04 -1.32350E+01  1.96839E+04  1.55466E+01  1.95129E+04 -1.23651E+01
  1.93813E+04  2.01062E+00  1.92614E+04 -7.38187E+00  1.91044E+04  7.49821E+00  1.89755E+04 -8.66081E+00
  1.88515E+04 -1.35994E+01  1.87324E+04 -9.42311E-01  1.85715E+04 -3.31547E+00  1.84479E+04  1.42439E+01
  1.83320E+04 -2.89040E+00  1.82042E+04  1.19869E+01  1.80825E+04  1.32228E+01  1.79359E+04 -1.64159E+01
  1.78307E+04 -4.98334E+00  1.77067E+04  1.78407E+01  1.75639E+04 -4.65793E-01  1.74320E+04 -1.39435E+01
  1.73190E+04  7.75586E+00  1.72018E+04 -4.15690E+00  1.70706E+04 -1.52884E+01  1.69722E+04  3.76526E+00
  1.68224E+04 -6.58570E-01  1.67298E+04 -1.47773E+01  1.65960E+04  5.86704E+00  1.64685E+04 -1.44283E+00
  1.63653E+04 -1.49097E+01  1.62618E+04 -6.25037E+00  1.61474E+04  7.63376E+00  1.60171E+04  1.28086E+01
  1.59019E+04  1.74702E+01  1.58008E+04 -1.00545E+01  1.56925E+04 -1.42848E+01  1.55913E+04 -1.41520E+01
  1.54769E+04 -7.63163E-01  1.53615E+04 -6.56753E-01  1.52340E+04 -5.84232E-01  1.51283E+04 -1.62093E+01
  1.50482E+04 -1.79546E+01  1.49377E+04 -1.71755E+01  1.48240E+04  2.43715E+00  1.47068E+04 -1.31470E+01
  1.46080E+04  1.18404E+01  1.44991E+04  6.09586E+00  1.44274E+04 -7.92104E+00  1.43040E+04  8.21902E+00
  1.42132E+04 -1.81604E+01  1.41060E+04  1.45495E+01  1.40132E+04  5.25033E+00  1.39292E+04  6.78156E+00
  1.38128E+04  7.62286E+00  1.37243E+04 -1.27345E+01  1.36017E+04  1.71817E+00  1.35089E+04  8.12683E-01
  1.34350E+04  1.42786E+01  1.33319E+04 -6.31152E+00  1.32250E+04  1.10820E+01  1.31374E+04 -3.52362E+00
  1.30608E+04  1.25631E+01  1.29774E+04 -6.43503E+00  1.28689E+04  5.88438E+00  1.27857E+04 -2.88048E+00
  1.26761E+04  1.36254E+01  1.25881E+04  1.43468E+01  1.25183E+04  7.20687E+00  1.24390E+04  1.00086E+00
  1.23242E+04 -7.47568E+00  1.22588E+04 -2.37366E-01  1.21683E+04  6.63892E-01  1.20951E+04  5.24008E+00
  1.19840E+04 -1.47574E+01  1.19065E+04  9.71301E+00  1.18309E+04 -4.36529E+00  1.17433E+04 -1.02818E+01
  1.16447E+04 -2.54610E-01  1.15890E+04 -1.40837E+01  1.15121E+04 -9.01917E-01  1.14299E+04  7.97710E+00
  1.13242E+04  2.68754E+00  1.12444E+04 -1.36695E+01  1.11620E+04 -4.01408E+00  1.11039E+04  1.31106E+01
  1.10332E+04  1.68539E+01  1.09558E+04  1.75229E+01  1.08705E+04  1.87460E+00  1.07978E+04 -7.08316E+00
  1.07135E+04  1.17714E+00  1.06281E+04  6.70715E+00  1.05652E+04  9.69844E+00  1.04699E+04  4.13941E+00
  1.04272E+04  1.59987E+01  1.03227E+04  4.14241E+00  1.02647E+04  2.78498E+00  1.01759E+04 -7.95838E+00
  1.01090E+04  1.12854E+01  1.00662E+04  1.66188E+01  9.98568E+03 -4.33597E+00  9.90717E+03 -1.44478E+01
  9.84309E+03 -1.23958E+01  9.76934E+03  1.30181E+01  9.71485E+03  1.18799E+01  9.64859E+03 -2.06781E+00
  9.57983E+03  1.09320E+01  9.51155E+03 -3.57656E+00  9.41388E+03  1.27097E+01  9.35020E+03 -7.54919E+00
  9.30345E+03  6.74345E-01  9.23249E+03 -1.80857E+01  9.18268E+03 -1.02566E+01  9.10647E+03 -8.74901E+00
  9.04539E+03 -1.35250E+01  8.99312E+03  1.04881E+01  8.90774E+03  1.57568E+00  8.85408E+03 -1.44744E+01
  8.78216E+03 -9.66577E+00  8.71501E+03  2.86554E+00  8.66516E+03  3.11270E+00  8.59385E+03  9.63416E+00
  8.53342E+03 -3.07151E+00  8.49583E+03  4.95186E-02  8.42549E+03 -1.24509E+00  8.34608E+03 -2.31270E+00
  8.29009E+03 -1.78896E+01  8.25843E+03  8.70661E+00  8.20099E+03 -1.74587E+01  8.14414E+03 -1.26334E+01
  8.06620E+03 -8.19697E+00  8.00938E+03  5.29619E+00  7.96593E+03  1.17729E+01  7.91025E+03 -9.87062E+00
  7.84181E+03  6.52039E+00  7.79684E+03  7.87745E-01  7.74207E+03 -3.65862E+00  7.69681E+03 -1.19864E+01
  7.63606E+03 -8.81336E+00  7.57533E+03 -1.20236E+01  7.52450E+03 -1.59688E+01  7.46099E+03  6.74927E+00
  7.41094E+03 -4.20096E+00  7.35199E+03 -1.59514E+01  7.32508E+03  1.32130E+01  7.25271E+03  7.19714E+00
  7.20479E+03  1.07830E+00  7.15926E+03  1.57950E+00  7.12127E+03 -1.77143E+01  7.05172E+03 -9.98461E+00
  6.99599E+03  4.88380E+00  6.94050E+03 -1.07223E+01  6.92225E+03 -8.13722E+00  6.84406E+03 -9.54410E+00
  6.81403E+03  4.15520E+00  6.76177E+03  1.67121E+01  6.70764E+03  6.50549E+00  6.67457E+03  8.03188E-01
  6.62850E+03  9.91088E+00  6.59099E+03 -8.68254E+00  6.52468E+03 -5.68706E+00  6.47116E+03 -6.53726E+00
  6.43266E+03 -1.49044E+01  6.40610E+03 -1.30914E+01  6.35032E+03 -4.33546E-01  6.30100E+03 -7.54130E+00
  6.27183E+03  1.73418E+01  6.20368E+03 -2.95608E+00  6.16943E+03  1.55078E+00  6.10980E+03  1.20403E+01
  6.07411E+03  7.71294E+00  6.02571E+03 -5.95940E+00  5.99799E+03  1.13724E+01  5.94792E+03  5.07362E+00
  5.91278E+03  1.65661E+01  5.87995E+03 -4.78250E+00  5.84673E+03  4.05601E+00  5.78678E+03 -2.78820E+00
  5.74995E+03  9.67801E-01  5.71781E+03  1.21750E+01  5.65983E+03  1.23641E+01  5.63463E+03 -4.65374E+00
  5.60293E+03 -1.04095E+01  5.53299E+03  2.75535E-01  5.52846E+03 -1.19438E+01  5.48841E+03 -1.11595E+01
  5.45026E+03  4.79185E+00  5.40799E+03  9.25963E+00  5.35654E+03 -2.42788E+00  5.31253E+03 -8.01912E+00
  5.27802E+03  7.13464E+00  5.25633E+03 -1.54538E+01  5.19540E+03  4.95770E+00  5.17690E+03 -1.49318E+01
  5.13332E+03 -1.69193E+01  5.11665E+03 -7.61676E+00  5.07088E+03  9.59845E+00  5.04361E+03 -1.83701E+00
  5.00769E+03  1.40610E+01  4.94763E+03 -2.09501E+00  4.93460E+03 -5.04016E+00  4.88626E+03 -1.81510E+01
  4.84754E+03  9.63460E+00  4.83094E+03  1.30430E+01  4.79846E+03 -4.73933E+00  4.76472E+03 -1.77298E+01
  4.71317E+03 -1.58081E+01  4.67944E+03  5.13052E+00  4.64276E+03  1.09594E+01  4.63406E+03  1.50314E+01
  4.57303E+03  1.39302E+01  4.54456E+03 -1.01990E+01  4.52011E+03  9.63182E+00  4.50601E+03  1.11970E+01
  4.45575E+03  8.68844E+00  4.43286E+03 -1.05394E+01  4.40410E+03  8.28278E+00  4.36248E+03  1.65390E+01
  4.34378E+03  1.58262E+01  4.28797E+03  2.42366E+00  4.26935E+03 -1.20682E+00  4.25150E+03 -2.56094E+00
  4.21000E+03 -1.50788E+01  4.18696E+03  8.21364E+00  4.16191E+03  1.16944E+01  4.13770E+03 -1.57209E+01
  4.09925E+03  1.26379E+01  4.05392E+03  7.84759E-01  4.05272E+03 -3.79163E+00  4.01648E+03 -1.30438E+01
  3.99872E+03  1.10031E+01  3.94093E+03  1.26524E+01  3.91926E+03  1.34661E+01  3.89318E+03 -5.33364E+00
  3.85979E+03  1.73519E+01  3.86002E+03 -1.51381E+01  3.80941E+03 -1.24147E+01  3.79815E+03  1.41365E+01
  3.75716E+03  1.65150E+00  3.75238E+03 -3.89622E+00  3.69923E+03 -1.10879E+01  3.69099E+03  1.78498E+01
  3.63937E+03  6.78002E+00  3.62339E+03 -5.58228E+00  3.60709E+03 -1.01947E+01  3.59720E+03  7.27063E+00
  3.56752E+03  1.00675E+01  3.54449E+03  1.44695E+01  3.49048E+03  4.51195E+00  3.47196E+03  5.58331E+00
  3.44382E+03  8.70410E+00  3.42452E+03  9.95641E+00  3.41039E+03  1.73789E+01  3.38693E+03  9.10180E+00
  3.37775E+03 -9.04518E+00  3.34107E+03  1.72740E+01  3.30980E+03 -7.85396E+00  3.28706E+03  3.78891E-01
  3.27800E+03 -4.32959E+00  3.22731E+03  1.46035E+01  3.20593E+03  1.43717E+01  3.19729E+03 -1.00116E+01
  3.17314E+03  1.39511E+01  3.16476E+03  3.76873E+00  3.14679E+03 -5.73606E-01  3.12109E+03 -4.37573E-01
  3.07464E+03 -7.37232E+00  3.06285E+03  1.60849E+01  3.03144E+03  1.59488E+01  3.01577E+03  6.15563E+00
  2.98747E+03 -5.52543E+00  2.97221E+03 -2.11941E+00  2.95619E+03  7.25760E+00  2.94266E+03 -1.56328E+01
