 $NMID ID='dataset22', FMTDAT='(8E13.5)'
 TRAMP=1, VOLUME=1 $END
  4.38239E+04  2.39329E+04  4.34188E+04  2.41897E+04  4.29915E+04  2.44536E+04  4.26023E+04  2.46895E+04
  4.21861E+04  2.49356E+04  4.17823E+04  2.51640E+04  4.13543E+04  2.53955E+04  4.09672E+04  2.56243E+04
  4.05434E+04  2.58463E+04  4.01435E+04  2.60659E+04  3.97359E+04  2.62729E+04  3.93258E+04  2.64816E+04
  3.89229E+04  2.66689E+04  3.85233E+04  2.68687E+04  3.81223E+04  2.70655E+04  3.77021E+04  2.72505E+04
  3.73217E+04  2.74216E+04  3.69033E+04  2.76072E+04  3.65076E+04  2.77560E+04  3.61021E+04  2.79296E+04
  3.57054E+04  2.80883E+04  3.53118E+04  2.82436E+04  3.49233E+04  2.84049E+04  3.45288E+04  2.85523E+04
  3.41520E+04  2.86895E+04  3.37598E+04  2.88222E+04  3.33559E+04  2.89695E+04  3.29701E+04  2.90860E+04
  3.25822E+04  2.91974E+04  3.22128E+04  2.93204E+04  3.18154E+04  2.94263E+04  3.14309E+04  2.95475E+04
  3.10703E+04  2.96562E+04  3.06952E+04  2.97528E+04  3.02996E+04  2.98439E+04  2.99367E+04  2.99304E+04
  2.95708E+04  3.00298E+04  2.91982E+04  3.01059E+04  2.88399E+04  3.01830E+04  2.84687E+04  3.02509E+04
  2.81162E+04  3.03304E+04  2.77518E+04  3.04042E+04  2.74088E+04  3.04611E+04  2.70303E+04  3.05117E+04
  2.66850E+04  3.05705E+04  2.63478E+04  3.06184E+04  2.59947E+04  3.06506E+04  2.56572E+04  3.06970E+04
  2.53120E+04  3.07396E+04  2.49772E+04  3.07679E+04  2.46494E+04  3.08147E+04  2.43177E+04  3.08386E+04
  2.39716E+04  3.08505E+04  2.36578E+04  3.08686E+04  2.33246E+04  3.08921E+04  2.30137E+04  3.08961E+04
  2.26929E+04  3.09053E+04  2.23694E+04  3.09254E+04  2.20613E+04  3.09280E+04  2.17556E+04  3.09224E+04
  2.14401E+04  3.09165E+04  2.11499E+04  3.09158E+04  2.08537E+04  3.09081E+04  2.05460E+04  3.09034E+04
  2.02519E+04  3.08877E+04  1.99674E+04  3.08595E+04  1.96894E+04  3.08361E+04  1.94008E+04  3.08074E+04
  1.91109E+04  3.07837E+04  1.88447E+04  3.07581E+04  1.85800E+04  3.07314E+04  1.82855E+04  3.06979E+04
  1.80173E+04  3.06607E+04  1.77534E+04  3.06239E+04  1.75086E+04  3.05847E+04  1.72408E+04  3.05401E+04
  1.69899E+04  3.04762E+04  1.67317E+04  3.04325E+04  1.64885E+04  3.03852E+04  1.62357E+04  3.03388E+04
  1.59987E+04  3.02695E+04  1.57735E+04  3.02202E+04  1.55310E+04  3.01699E+04  1.52888E+04  3.01013E+04
  1.50775E+04  3.00482E+04  1.48422E+04  2.99688E+04  1.46310E+04  2.99113E+04  1.44144E+04  2.98495E+04
  1.41983E+04  2.97585E+04  1.39832E+04  2.96916E+04  1.37758E+04  2.96295E+04  1.35747E+04  2.95482E+04
  1.33780E+04  2.94661E+04  1.31830E+04  2.94021E+04  1.29815E+04  2.93054E+04  1.27837E+04  2.92450E+04
  1.26111E+04  2.91570E+04  1.24127E+04  2.90822E+04  1.22332E+04  2.89933E+04  1.20504E+04  2.89068E+04
  1.18866E+04  2.88113E+04  1.17162E+04  2.87169E+04  1.15367E+04  2.86278E+04  1.13683E+04  2.85512E+04
  1.12052E+04  2.84502E+04  1.10504E+04  2.83666E+04  1.09029E+04  2.82632E+04  1.07472E+04  2.81671E+04
  1.06009E+04  2.80692E+04  1.04626E+04  2.79925E+04  1.03102E+04  2.78887E+04  1.01560E+04  2.77893E+04
  1.00166E+04  2.76948E+04  9.90214E+03  2.75927E+04  9.76128E+03  2.74942E+04  9.63541E+03  2.74021E+04
  9.49962E+03  2.73019E+04  9.38236E+03  2.71897E+04  9.27027E+03  2.71033E+04  9.14964E+03  2.69954E+04
  9.02584E+03  2.68924E+04  8.91744E+03  2.67973E+04  8.82627E+03  2.66855E+04  8.70923E+03  2.65811E+04
  8.60924E+03  2.64586E+04  8.49618E+03  2.63686E+04  8.40321E+03  2.62582E+04  8.30420E+03  2.61496E+04
  8.21261E+03  2.60609E+04  8.12264E+03  2.59478E+04  8.03817E+03  2.58278E+04  7.95593E+03  2.57416E+04
  7.88381E+03  2.56245E+04  7.79200E+03  2.55158E+04  7.70808E+03  2.54206E+04  7.63746E+03  2.53078E+04
  7.56530E+03  2.51965E+04  7.50162E+03  2.50802E+04  7.42993E+03  2.49843E+04  7.34870E+03  2.48616E+04
  7.30599E+03  2.47545E+04  7.23054E+03  2.46608E+04  7.18263E+03  2.45408E+04  7.12087E+03  2.44400E+04
  7.06754E+03  2.43245E+04  7.01899E+03  2.42189E+04  6.95841E+03  2.41039E+04  6.91882E+03  2.39978E+04
  6.85917E+03  2.38932E+04  6.81742E+03  2.37764E+04  6.76548E+03  2.36687E+04  6.72803E+03  2.35796E+04
  6.70413E+03  2.34634E+04  6.65965E+03  2.33415E+04  6.62394E+03  2.32330E+04  6.57971E+03  2.31348E+04
  6.56753E+03  2.30179E+04  6.51917E+03  2.29132E+04  6.50831E+03  2.28059E+04  6.47340E+03  2.27066E+04
  6.45770E+03  2.25898E+04  6.43531E+03  2.24908E+04  6.40409E+03  2.23743E+04  6.37757E+03  2.22710E+04
  6.36179E+03  2.21515E+04  6.34306E+03  2.20573E+04  6.34251E+03  2.19451E+04  6.31198E+03  2.18368E+04
  6.31503E+03  2.17282E+04  6.29580E+03  2.16067E+04  6.28075E+03  2.15005E+04  6.26564E+03  2.14159E+04
  6.27208E+03  2.12970E+04  6.25461E+03  2.11965E+04  6.25848E+03  2.10712E+04  6.25195E+03  2.09806E+04
  6.25055E+03  2.08589E+04  6.24913E+03  2.07524E+04  6.25502E+03  2.06523E+04  6.24533E+03  2.05543E+04
  6.25570E+03  2.04318E+04  6.24263E+03  2.03497E+04  6.24488E+03  2.02320E+04  6.25798E+03  2.01407E+04
  6.26925E+03  2.00207E+04  6.27639E+03  1.99066E+04  6.29322E+03  1.98175E+04  6.29179E+03  1.97129E+04
  6.28740E+03  1.96056E+04  6.31522E+03  1.95012E+04  6.32154E+03  1.93871E+04  6.33827E+03  1.92932E+04
  6.33040E+03  1.91829E+04  6.35972E+03  1.90690E+04  6.36609E+03  1.89697E+04  6.37562E+03  1.88626E+04
  6.40462E+03  1.87649E+04  6.41361E+03  1.86660E+04  6.44045E+03  1.85643E+04  6.45206E+03  1.84607E+04
  6.46673E+03  1.83553E+04  6.47939E+03  1.82534E+04  6.49306E+03  1.81412E+04  6.51309E+03  1.80501E+04
  6.54147E+03  1.79471E+04  6.55289E+03  1.78279E+04  6.57354E+03  1.77246E+04  6.59142E+03  1.76310E+04
  6.61433E+03  1.75185E+04  6.62249E+03  1.74229E+04  6.65523E+03  1.73215E+04  6.68394E+03  1.72335E+04
  6.69739E+03  1.71214E+04  6.72545E+03  1.70147E+04  6.75443E+03  1.69163E+04  6.75469E+03  1.68160E+04
  6.77669E+03  1.67126E+04  6.82019E+03  1.66091E+04  6.83272E+03  1.65154E+04  6.86854E+03  1.64195E+04
  6.89209E+03  1.63193E+04  6.90479E+03  1.62133E+04  6.91350E+03  1.61090E+04  6.95639E+03  1.60226E+04
  6.96379E+03  1.59145E+04  6.99003E+03  1.58238E+04  7.01857E+03  1.57228E+04  7.03540E+03  1.56222E+04
  7.06595E+03  1.55111E+04  7.09387E+03  1.54109E+04  7.11308E+03  1.53259E+04  7.14655E+03  1.52208E+04
  7.14860E+03  1.51165E+04  7.18466E+03  1.50149E+04  7.21757E+03  1.49330E+04  7.23289E+03  1.48375E+04
  7.25305E+03  1.47368E+04  7.26700E+03  1.46257E+04  7.29878E+03  1.45351E+04  7.31584E+03  1.44496E+04
  7.34227E+03  1.43533E+04  7.35478E+03  1.42414E+04  7.38105E+03  1.41527E+04  7.41463E+03  1.40614E+04
  7.42092E+03  1.39611E+04  7.44226E+03  1.38696E+04  7.45891E+03  1.37754E+04  7.47985E+03  1.36757E+04
  7.49487E+03  1.35748E+04  7.52836E+03  1.34739E+04  7.54579E+03  1.33899E+04  7.54890E+03  1.32955E+04
  7.56801E+03  1.32084E+04  7.59073E+03  1.31139E+04  7.60489E+03  1.30176E+04  7.64589E+03  1.29344E+04
  7.66139E+03  1.28335E+04  7.66488E+03  1.27451E+04  7.68074E+03  1.26521E+04  7.69048E+03  1.25537E+04
  7.72086E+03  1.24606E+04  7.73992E+03  1.23811E+04  7.73044E+03  1.22855E+04  7.74937E+03  1.21975E+04
  7.78293E+03  1.21081E+04  7.78227E+03  1.20223E+04  7.80427E+03  1.19359E+04  7.80760E+03  1.18382E+04
  7.81535E+03  1.17611E+04  7.83454E+03  1.16692E+04  7.85192E+03  1.15870E+04  7.86106E+03  1.15062E+04
  7.86551E+03  1.13992E+04  7.87832E+03  1.13165E+04  7.88578E+03  1.12418E+04  7.90937E+03  1.11485E+04
  7.92101E+03  1.10663E+04  7.91832E+03  1.09883E+04  7.92278E+03  1.09041E+04  7.92373E+03  1.08035E+04
  7.93212E+03  1.07233E+04  7.94975E+03  1.06332E+04  7.94076E+03  1.05591E+04  7.96018E+03  1.04730E+04
  7.97087E+03  1.03954E+04  7.96978E+03  1.03095E+04  7.97168E+03  1.02499E+04  7.97154E+03  1.01621E+04
  7.97242E+03  1.00830E+04  7.98787E+03  9.99695E+03  7.97883E+03  9.90901E+03  7.99080E+03  9.84862E+03
  7.98236E+03  9.77374E+03  7.98366E+03  9.67796E+03  7.98414E+03  9.61365E+03  7.98537E+03  9.52734E+03
  7.97769E+03  9.45696E+03  7.98713E+03  9.36884E+03  7.98124E+03  9.31471E+03  7.98958E+03  9.22693E+03
  7.97435E+03  9.14625E+03  7.97207E+03  9.08895E+03  7.98002E+03  8.99836E+03  7.98114E+03  8.93695E+03
  7.96401E+03  8.85506E+03  7.96059E+03  8.79790E+03  7.94911E+03  8.72310E+03  7.94697E+03  8.64474E+03
  7.95069E+03  8.59261E+03  7.94236E+03  8.51804E+03  7.93702E+03  8.42512E+03  7.93457E+03  8.37987E+03
  7.93317E+03  8.30561E+03  7.92809E+03  8.23304E+03  7.92002E+03  8.16725E+03  7.90918E+03  8.10608E+03
  7.89169E+03  8.02874E+03  7.89197E+03  7.97382E+03  7.86592E+03  7.90805E+03  7.84760E+03  7.84258E+03
  7.84434E+03  7.77412E+03  7.84452E+03  7.72627E+03  7.82034E+03  7.64687E+03  7.82026E+03  7.60602E+03
  7.79948E+03  7.53363E+03  7.78271E+03  7.46907E+03  7.77817E+03  7.41890E+03  7.76485E+03  7.35114E+03
  7.74363E+03  7.29275E+03  7.72833E+03  7.23227E+03  7.72550E+03  7.18360E+03  7.71251E+03  7.11584E+03
  7.70346E+03  7.06520E+03  7.68196E+03  6.99124E+03  7.67633E+03  6.93762E+03  7.65490E+03  6.89318E+03
  7.63892E+03  6.84291E+03  7.61995E+03  6.76594E+03  7.61455E+03  6.72499E+03  7.58026E+03  6.67478E+03
  7.57418E+03  6.60767E+03  7.54744E+03  6.57085E+03  7.54002E+03  6.51714E+03  7.53140E+03  6.46095E+03
  7.51274E+03  6.40982E+03  7.47929E+03  6.36501E+03  7.46420E+03  6.30207E+03  7.45817E+03  6.25506E+03
  7.43177E+03  6.20287E+03  7.41646E+03  6.16741E+03  7.39849E+03  6.11913E+03  7.36961E+03  6.06284E+03
  7.35177E+03  6.03330E+03  7.32962E+03  5.97577E+03  7.31775E+03  5.93109E+03  7.29037E+03  5.87852E+03
  7.26463E+03  5.83489E+03  7.26271E+03  5.79292E+03  7.23993E+03  5.75747E+03  7.20759E+03  5.71499E+03
  7.18708E+03  5.66760E+03  7.15884E+03  5.62295E+03  7.14590E+03  5.59642E+03  7.11067E+03  5.54262E+03
  7.10891E+03  5.50553E+03  7.09033E+03  5.45810E+03  7.05652E+03  5.42698E+03  7.03545E+03  5.38446E+03
  7.01737E+03  5.33126E+03  6.99020E+03  5.29002E+03  6.95919E+03  5.25741E+03  6.94024E+03  5.21326E+03
  6.93084E+03  5.19156E+03  6.90695E+03  5.15869E+03  6.86702E+03  5.10696E+03  6.84224E+03  5.08240E+03
