 $NMID ID='dataset7', FMTDAT='(8E13.5)'
 TRAMP=1, VOLUME=1 $END
  4.99224E+04 -5.02432E+00  4.97032E+04 -9.70128E+00  4.94642E+04 -8.40873E+00  4.92250E+04  7.76940E+00
  4.89889E+04  6.10444E-01  4.87708E+04  7.13062E+00  4.85489E+04  9.10809E+00  4.82994E+04 -4.79823E+00
  4.80939E+04 -8.06900E+00  4.78594E+04  6.94936E+00  4.76318E+04 -9.02263E+00  4.73973E+04  1.10501E+01
  4.71774E+04  7.04452E+00  4.69735E+04  1.13447E+01  4.67353E+04 -6.21874E+00  4.65163E+04 -8.58570E+00
  4.63039E+04 -1.88608E+00  4.60916E+04  5.45159E+00  4.58745E+04 -1.05068E+01  4.56495E+04  6.09257E-01
  4.54430E+04  7.18388E+00  4.52231E+04 -9.03073E+00  4.50195E+04  4.75885E+00  4.48113E+04  5.38549E+00
  4.45902E+04 -2.29558E-01  4.43855E+04  8.33350E+00  4.41730E+04  5.80876E+00  4.39637E+04 -6.70419E+00
  4.37642E+04 -8.18354E+00  4.35614E+04  8.18603E+00  4.33466E+04 -7.94101E+00  4.31395E+04  1.40341E+00
  4.29368E+04  4.01307E+00  4.27454E+04  1.00127E+01  4.25366E+04 -6.14520E+00  4.23422E+04  1.16158E+01
  4.21387E+04  6.61384E-01  4.19308E+04  5.81871E+00  4.17374E+04 -5.91690E+00  4.15459E+04  1.13539E+01
  4.13446E+04 -2.69426E+00  4.11616E+04 -9.36377E+00  4.09603E+04 -9.60012E+00  4.07631E+04 -3.78531E+00
  4.05748E+04 -1.04588E+01  4.03930E+04  9.09836E+00  4.02069E+04  6.55277E+00  4.00207E+04 -1.05377E+01
  3.98190E+04 -5.61641E+00  3.96470E+04  8.50400E+00  3.94503E+04 -7.25498E+00  3.92705E+04 -2.55816E+00
  3.90758E+04  8.66889E+00  3.88920E+04  3.26362E+00  3.87034E+04 -6.37384E-01  3.85263E+04  5.86788E+00
  3.83575E+04  5.03288E+00  3.81716E+04  3.49563E+00  3.79901E+04  2.65046E-01  3.78087E+04 -2.03699E+00
  3.76423E+04 -3.33618E+00  3.74595E+04  5.12635E+00  3.72848E+04  9.69372E+00  3.70976E+04  8.30010E+00
  3.69300E+04  1.14565E-01  3.67512E+04  8.60054E+00  3.65748E+04  7.64575E+00  3.64239E+04  7.59299E+00
  3.62308E+04 -5.78841E-02  3.60691E+04  6.62025E+00  3.58940E+04  9.56056E+00  3.57431E+04 -9.39963E-01
  3.55668E+04  2.06998E+00  3.54075E+04 -1.06144E+01  3.52194E+04  2.55445E-02  3.50574E+04 -2.84593E+00
  3.48973E+04 -8.28344E+00  3.47468E+04 -9.25340E+00  3.45748E+04  9.40076E+00  3.44148E+04 -7.16494E+00
  3.42536E+04 -5.95560E+00  3.40990E+04  2.82113E+00  3.39328E+04 -1.03632E+01  3.37665E+04 -8.51170E+00
  3.36050E+04 -1.03362E+01  3.34560E+04  4.05185E+00  3.33035E+04 -2.57376E+00  3.31290E+04  1.09513E+01
  3.29884E+04 -4.88132E+00  3.28223E+04  1.14734E+01  3.26801E+04  6.48784E+00  3.25212E+04 -3.30969E+00
  3.23632E+04  1.19843E+00  3.22243E+04  3.42084E+00  3.20574E+04 -6.40912E+00  3.19230E+04  2.22995E+00
  3.17502E+04 -4.33729E+00  3.16138E+04 -7.71134E+00  3.14596E+04 -2.69115E-01  3.13249E+04 -2.21221E+00
  3.11713E+04 -2.56542E+00  3.10193E+04  6.18724E+00  3.08828E+04  3.73299E+00  3.07263E+04  6.61378E-01
  3.05896E+04  4.81289E+00  3.04322E+04  8.62198E+00  3.03076E+04 -8.49782E+00  3.01482E+04  3.88161E+00
  3.00065E+04 -4.53244E+00  2.98743E+04  1.98580E+00  2.97334E+04  4.04169E-02  2.95992E+04  9.72970E+00
  2.94590E+04  1.02262E+01  2.93131E+04 -1.82763E+00  2.91899E+04  7.42786E-01  2.90489E+04 -9.42638E+00
  2.88982E+04  9.45671E+00  2.87802E+04  8.72488E+00  2.86361E+04  5.77388E-01  2.84902E+04  8.84655E+00
  2.83603E+04 -2.06607E+00  2.82370E+04 -1.33567E+00  2.81100E+04 -1.66907E+00  2.79648E+04 -1.00572E+01
  2.78323E+04 -1.02209E+01  2.77128E+04 -2.96996E+00  2.75644E+04 -5.62792E+00  2.74441E+04  8.64602E+00
  2.73246E+04 -8.72909E+00  2.71952E+04  1.07283E+01  2.70595E+04 -1.09545E+01  2.69401E+04 -6.82470E+00
  2.68152E+04  1.16175E+00  2.66689E+04  4.43206E+00  2.65471E+04 -5.66499E+00  2.64274E+04 -8.43412E+00
  2.63001E+04 -8.84863E+00  2.61769E+04  5.66913E+00  2.60543E+04 -6.50716E+00  2.59409E+04  1.10629E+01
  2.58045E+04 -6.23093E+00  2.56861E+04  9.19433E+00  2.55777E+04  8.49983E+00  2.54603E+04  4.47833E+00
  2.53418E+04  6.31130E+00  2.52085E+04 -1.07515E+01  2.50996E+04  6.83639E+00  2.49728E+04 -5.79138E+00
  2.48484E+04 -1.08316E+01  2.47368E+04 -3.03110E+00  2.46308E+04  7.34686E+00  2.45156E+04 -6.86119E+00
  2.44051E+04  8.59360E+00  2.42807E+04  7.61842E+00  2.41741E+04  8.15017E+00  2.40639E+04 -5.46422E+00
  2.39309E+04  3.95248E+00  2.38371E+04 -9.12236E-01  2.37193E+04 -1.10468E+00  2.36046E+04  4.08648E+00
  2.34857E+04 -2.96026E+00  2.33869E+04 -6.07638E+00  2.32802E+04  1.07813E+01  2.31508E+04 -3.96873E+00
  2.30470E+04 -3.52009E+00  2.29498E+04 -2.13800E+00  2.28332E+04 -9.75405E+00  2.27351E+04 -4.99623E+00
  2.26234E+04  4.28730E+00  2.25129E+04 -4.49226E+00  2.24063E+04 -4.78043E+00  2.22970E+04  4.32441E+00
  2.21974E+04 -1.13657E+01  2.21065E+04  2.29533E+00  2.19973E+04 -6.51437E+00  2.18899E+04  2.15878E+00
  2.17948E+04 -3.00532E+00  2.16830E+04  5.17202E+00  2.15798E+04  1.07746E+01  2.14779E+04  6.31239E-02
  2.13802E+04 -6.85142E+00  2.12788E+04  9.60032E-01  2.11900E+04  1.76520E+00  2.10816E+04 -1.44496E+00
  2.09859E+04 -9.92692E+00  2.08707E+04  7.91505E+00  2.07716E+04 -7.76214E+00  2.06906E+04  2.17983E+00
  2.05934E+04  4.76373E+00  2.04902E+04  3.86000E+00  2.04064E+04  2.11920E+00  2.03010E+04  7.19009E+00
  2.02130E+04  6.95889E+00  2.01096E+04  9.74003E+00  2.00219E+04 -3.07047E+00  1.99286E+04 -3.39528E+00
  1.98318E+04  5.60171E+00  1.97301E+04  1.15220E+01  1.96418E+04 -3.43120E+00  1.95460E+04 -9.14610E+00
  1.94554E+04  8.36879E+00  1.93749E+04  5.52794E+00  1.92777E+04  7.40156E-01  1.91909E+04  4.28538E+00
  1.90828E+04 -5.80687E+00  1.90046E+04 -6.49704E+00  1.89134E+04 -5.27938E+00  1.88172E+04 -1.60627E+00
  1.87408E+04 -7.83952E+00  1.86380E+04  9.90521E+00  1.85503E+04 -4.61190E+00  1.84771E+04 -2.42822E+00
  1.83773E+04  7.25618E+00  1.82948E+04 -1.10004E+01  1.82078E+04 -8.98126E+00  1.81196E+04 -3.48071E+00
  1.80389E+04  3.25005E+00  1.79535E+04 -5.42669E+00  1.78785E+04 -4.42967E+00  1.77831E+04 -5.91306E+00
  1.76990E+04  3.71695E-01  1.76136E+04  8.70567E-01  1.75347E+04  5.60846E+00  1.74515E+04 -6.60637E+00
  1.73745E+04 -1.17689E+00  1.72990E+04 -5.71077E+00  1.72177E+04  7.87899E+00  1.71292E+04 -5.96868E+00
  1.70528E+04  4.01683E-01  1.69783E+04 -5.64690E+00  1.68831E+04  6.89234E+00  1.68099E+04 -8.01934E+00
  1.67233E+04 -9.19234E+00  1.66523E+04 -1.06558E+00  1.65734E+04 -4.81589E-01  1.65016E+04 -1.09375E+01
  1.64257E+04 -2.24991E+00  1.63420E+04 -3.76096E+00  1.62641E+04 -7.99352E+00  1.61880E+04 -1.11816E+01
  1.61026E+04 -5.93571E+00  1.60405E+04 -1.88936E+00  1.59627E+04  3.77087E+00  1.58951E+04  1.06155E+01
  1.58040E+04  3.24062E+00  1.57361E+04  1.02009E+01  1.56668E+04 -1.05255E+01  1.55865E+04  6.34913E+00
  1.55109E+04  5.62333E+00  1.54388E+04 -9.78091E+00  1.53616E+04  1.30096E+00  1.52990E+04  1.15468E+01
  1.52212E+04 -3.73058E+00  1.51503E+04 -1.48789E+00  1.50851E+04 -1.00619E+00  1.50026E+04  6.92980E+00
  1.49452E+04 -1.10268E+01  1.48722E+04 -8.43845E+00  1.47991E+04 -9.36772E-01  1.47238E+04  1.75966E+00
  1.46694E+04  6.18330E+00  1.45961E+04  7.41656E+00  1.45267E+04 -2.43914E+00  1.44499E+04 -2.24943E+00
  1.43820E+04 -1.17503E+01  1.43133E+04  1.72097E+00  1.42553E+04 -7.07247E+00  1.41878E+04 -6.32795E+00
  1.41168E+04 -8.64862E-01  1.40645E+04 -5.79211E+00  1.39908E+04 -8.27157E+00  1.39206E+04  9.90680E+00
  1.38679E+04  5.82919E+00  1.38030E+04  1.15669E+01  1.37359E+04  4.53917E+00  1.36579E+04 -8.10939E+00
  1.35967E+04  6.81363E+00  1.35269E+04  9.05056E+00  1.34630E+04  7.28265E+00  1.34148E+04  8.28599E+00
  1.33350E+04 -8.57566E+00  1.32809E+04  8.09922E+00  1.32245E+04  5.05251E+00  1.31648E+04 -6.28762E+00
  1.31033E+04 -1.13420E+01  1.30372E+04 -2.81484E+00  1.29706E+04 -8.45588E+00  1.29093E+04  2.79563E+00
  1.28478E+04 -7.64585E+00  1.27975E+04  4.48792E+00  1.27247E+04  6.82581E+00  1.26749E+04  7.57995E+00
  1.26171E+04  3.51026E+00  1.25507E+04  3.46318E+00  1.25000E+04  1.01786E+01  1.24426E+04 -9.05232E+00
  1.23705E+04 -2.66122E-01  1.23087E+04  3.56716E+00  1.22590E+04  4.19726E+00  1.22044E+04 -8.64608E+00
  1.21437E+04 -2.68324E+00  1.20935E+04  9.99197E+00  1.20252E+04  7.49936E+00  1.19689E+04 -7.87572E+00
  1.19221E+04 -1.09726E+00  1.18721E+04 -7.81306E+00  1.18111E+04 -7.40086E+00  1.17528E+04 -5.40753E-01
  1.16960E+04  5.73759E+00  1.16469E+04  5.59836E+00  1.15976E+04  8.59600E+00  1.15286E+04  7.77159E+00
  1.14740E+04  1.16467E+01  1.14178E+04  3.75222E+00  1.13719E+04 -6.59477E+00  1.13133E+04  3.66693E+00
  1.12669E+04 -2.20476E+00  1.12170E+04 -1.08842E+01  1.11651E+04  5.04093E+00  1.10995E+04  8.66352E+00
  1.10598E+04 -4.09295E+00  1.09984E+04  5.91287E+00  1.09607E+04  3.64252E+00  1.08970E+04 -8.01427E+00
  1.08408E+04  3.15044E+00  1.07939E+04  1.38120E-01  1.07386E+04  6.73148E+00  1.06851E+04  2.88710E+00
  1.06480E+04  3.88993E+00  1.06049E+04  5.90999E+00  1.05364E+04 -7.76742E+00  1.05020E+04 -4.72513E+00
  1.04372E+04  2.64505E+00  1.03908E+04  5.00905E+00  1.03584E+04  7.00930E+00  1.02894E+04 -7.32465E+00
  1.02554E+04 -2.45310E+00  1.02047E+04  1.47475E+00  1.01548E+04 -2.47361E+00  1.01094E+04  1.05148E+01
  1.00665E+04 -5.98530E+00  1.00122E+04  1.03801E+01  9.96445E+03 -9.91423E+00  9.91281E+03 -1.92671E+00
  9.87456E+03  1.06835E+01  9.82492E+03 -8.33287E+00  9.77696E+03 -4.10501E+00  9.73337E+03 -1.10334E+01
  9.67909E+03  1.47523E+00  9.64118E+03 -3.61018E-01  9.60129E+03 -1.16196E+01  9.54408E+03 -4.51476E+00
  9.49818E+03 -4.22944E+00  9.46852E+03 -4.96515E+00  9.40613E+03 -1.04892E+01  9.36401E+03 -3.23317E+00
  9.32962E+03  4.54369E+00  9.28521E+03 -1.87160E+00  9.23098E+03  4.41257E+00  9.19482E+03  4.59915E+00
  9.15894E+03  8.46434E+00  9.10217E+03 -5.97305E+00  9.07810E+03  1.13614E+01  9.02566E+03 -3.15964E+00
  8.98836E+03  6.70411E+00  8.93495E+03  3.08771E+00  8.90575E+03  1.08055E+01  8.85958E+03  8.78420E+00
  8.82620E+03 -9.62028E+00  8.77629E+03 -4.41872E+00  8.72481E+03  1.10053E+01  8.69523E+03 -6.94786E+00
  8.65154E+03 -2.53148E+00  8.61356E+03 -3.71576E+00  8.57015E+03 -8.22194E+00  8.53000E+03  4.01612E+00
