 $NMID ID='dataset14', FMTDAT='(8E13.5)'
 TRAMP=1, VOLUME=1 $END
  4.99446E+04  1.77300E+01  4.97457E+04 -1.69565E+01  4.94118E+04 -7.54771E+01  4.92219E+04  4.38712E+00
  4.89326E+04  4.89969E+01  4.86877E+04  4.85563E+01  4.85358E+04 -5.94732E+01  4.83895E+04 -3.80972E+01
  4.80666E+04  6.10149E+01  4.78734E+04  6.34697E+01  4.76659E+04 -4.35784E+00  4.74282E+04 -2.13770E+01
  4.72030E+04 -1.13479E+01  4.69088E+04  1.14894E+01  4.67758E+04 -3.84472E+01  4.65127E+04  6.58143E+01
  4.63544E+04  7.09714E+01  4.61664E+04 -4.48418E+01  4.58139E+04 -2.13918E+01  4.56443E+04 -3.82819E+01
  4.55073E+04 -3.48009E+01  4.51970E+04  1.30103E+01  4.49665E+04 -5.78286E+00  4.47180E+04 -8.42814E+01
  4.45339E+04 -1.41994E+01  4.43345E+04  3.78979E+01  4.42042E+04  7.10198E+01  4.39151E+04  8.34292E+01
  4.37581E+04 -5.99136E+01  4.35754E+04 -8.23511E+01  4.33329E+04 -3.02043E+01  4.30649E+04  5.75056E+01
  4.29615E+04  1.65191E+01  4.27921E+04 -7.56673E+01  4.26052E+04 -8.29838E+01  4.23281E+04 -1.31566E+01
  4.21912E+04 -1.78633E+01  4.19958E+04 -6.88491E+01  4.17040E+04 -7.80775E+01  4.16242E+04  1.64365E+01
  4.14346E+04 -7.05294E+01  4.11526E+04 -1.07090E+01  4.09178E+04 -1.97759E+01  4.07987E+04 -5.52609E+01
  4.05257E+04  1.63261E+01  4.03925E+04 -6.12651E+01  4.02652E+04  2.02004E+01  3.99306E+04  7.37779E+01
  3.98170E+04  1.74517E+01  3.96676E+04  5.59757E+01  3.94351E+04 -3.76029E+01  3.93194E+04  8.02240E+01
  3.90798E+04  1.45232E+01  3.88685E+04  6.93720E+01  3.87284E+04 -3.33698E+01  3.85167E+04  8.37164E+01
  3.83912E+04  5.66871E+01  3.81383E+04 -4.49741E+01  3.80008E+04 -7.83894E+01  3.77667E+04 -2.04800E+01
  3.75739E+04  3.66746E+01  3.74057E+04  4.41698E+01  3.73140E+04 -1.62538E+01  3.70762E+04  2.87713E+01
  3.69850E+04 -6.58892E+01  3.66825E+04  3.83797E+01  3.65076E+04 -5.09912E+01  3.64239E+04  4.79244E+01
  3.63160E+04  7.57681E+01  3.60408E+04 -1.78409E+01  3.58872E+04 -9.57884E+00  3.58029E+04  2.49643E+01
  3.54798E+04  5.53416E+01  3.53973E+04 -7.13536E+01  3.52638E+04  5.73332E+01  3.51328E+04  4.41236E+01
  3.48646E+04 -2.89253E+01  3.47551E+04  2.84227E+01  3.46260E+04  4.46592E+01  3.43986E+04 -5.24988E+01
  3.42674E+04  3.01643E+01  3.40316E+04  4.19854E+01  3.39119E+04 -1.69734E+00  3.36864E+04 -2.93987E+01
  3.35573E+04  3.36438E+01  3.35030E+04  7.37613E-01  3.32320E+04  6.64838E+01  3.30680E+04 -3.74459E+01
  3.28977E+04  5.03657E+01  3.29006E+04 -1.13351E+00  3.27552E+04  6.51316E+01  3.24508E+04 -1.07286E+01
  3.23921E+04 -8.43173E+01  3.22955E+04  3.74151E+01  3.20702E+04 -7.25590E+01  3.19812E+04  2.38852E+01
  3.17074E+04 -8.41576E+01  3.15325E+04 -8.18909E+01  3.15191E+04 -3.68583E+01  3.13757E+04  3.03441E+01
  3.11656E+04  4.83830E+01  3.09892E+04 -3.31303E+01  3.09284E+04  6.59032E+00  3.06906E+04  7.12935E+01
  3.06250E+04 -1.32617E+01  3.04445E+04 -1.69007E+01  3.03529E+04 -6.35345E+01  3.01998E+04  6.36266E+00
  2.99831E+04 -1.78328E+01  2.98534E+04 -2.54673E+01  2.97368E+04  7.06516E+00  2.95457E+04  3.57341E+00
  2.95250E+04  4.21734E+01  2.92937E+04  7.14946E+01  2.92585E+04  3.31067E+01  2.89652E+04  1.65905E+01
  2.88478E+04  5.17299E+01  2.87829E+04  7.78884E+01  2.86051E+04 -1.28036E+01  2.85565E+04  3.44263E+01
  2.83939E+04  1.28303E+01  2.81699E+04  8.50205E+01  2.81725E+04  2.48126E+01  2.79587E+04 -6.65101E+01
  2.79001E+04 -3.71421E+01  2.76929E+04  2.75270E+01  2.76119E+04  6.59282E+01  2.74107E+04  7.93658E+01
  2.72775E+04 -1.89813E+01  2.72139E+04  8.50859E+01  2.70781E+04 -6.33444E+01  2.70086E+04 -7.43903E+01
  2.67961E+04 -3.52792E+01  2.67345E+04  2.86255E+01  2.65938E+04  5.80217E+01  2.63760E+04 -5.66227E+01
  2.63344E+04 -6.30245E+00  2.62293E+04 -2.56751E+01  2.59910E+04  1.19808E+00  2.59077E+04 -8.02968E+01
  2.57335E+04 -6.35482E+01  2.57139E+04  5.61835E+01  2.56436E+04  7.75973E+01  2.55203E+04  2.99893E+01
  2.53816E+04  5.85526E+01  2.52500E+04 -1.64707E+01  2.50607E+04  7.83699E+00  2.50530E+04 -1.54359E+01
  2.48204E+04  3.28118E+01  2.47523E+04 -6.22107E+01  2.45779E+04  7.79587E+01  2.44288E+04  3.27559E+01
  2.44028E+04  6.11154E+01  2.43242E+04  1.04075E+01  2.42019E+04  3.27770E+01  2.40918E+04 -7.96705E+01
  2.38697E+04 -4.93716E+01  2.38266E+04  6.83786E+01  2.36987E+04  6.41830E+01  2.35974E+04  5.69992E+01
  2.34639E+04 -4.05554E+01  2.33618E+04 -8.50632E+01  2.33335E+04 -2.18917E+00  2.31315E+04 -2.90147E+00
  2.30460E+04 -6.74391E+01  2.29940E+04  6.87630E+01  2.28516E+04  4.67593E+01  2.27643E+04  3.58542E+01
  2.25426E+04  6.00865E+01  2.25023E+04 -6.75405E+01  2.23373E+04  6.91290E+01  2.22261E+04 -8.21593E+01
  2.22757E+04 -1.90303E+01  2.21628E+04 -3.57347E+01  2.19996E+04  1.11980E+01  2.18151E+04  1.91195E+01
  2.17355E+04  1.28235E+01  2.16981E+04 -5.48536E+01  2.15156E+04 -5.71847E+01  2.14343E+04 -1.25827E+01
  2.14542E+04 -7.33170E+01  2.12698E+04 -2.19911E+01  2.11063E+04  4.53771E+01  2.11202E+04 -7.84508E+01
  2.09467E+04  6.21840E+01  2.08870E+04 -7.70307E+01  2.08340E+04  7.25175E+01  2.06588E+04  3.81015E+01
  2.05455E+04  4.23960E+01  2.04501E+04  1.83127E+01  2.03522E+04  3.88279E+01  2.03139E+04  5.43534E+01
  2.01884E+04 -2.67540E+01  2.00722E+04 -7.58342E+01  2.00240E+04  6.01960E+01  1.99179E+04  2.51648E+01
  1.98266E+04 -4.75399E+01  1.97860E+04  4.16257E+01  1.96367E+04 -2.46483E+01  1.95658E+04  3.23888E+01
  1.94696E+04 -3.71172E+01  1.93463E+04 -1.34467E+01  1.93452E+04  2.06899E+01  1.92065E+04  4.62083E+01
  1.90546E+04  5.43851E+01  1.89791E+04 -3.92865E+01  1.88716E+04  2.46635E+01  1.89073E+04 -1.44202E+01
  1.87709E+04  6.67955E+01  1.85655E+04  2.64260E+01  1.86020E+04 -6.77413E+01  1.85437E+04  4.13882E+01
  1.84018E+04 -8.82961E+00  1.82748E+04 -4.73036E+01  1.82648E+04  6.61985E+01  1.82021E+04  6.67866E+01
  1.79649E+04  5.36472E-01  1.79982E+04 -2.24467E+01  1.78452E+04  3.59606E+01  1.77079E+04 -7.11763E+01
  1.76860E+04  4.41264E+01  1.76570E+04  2.07061E+00  1.74721E+04  5.22166E+01  1.74667E+04 -5.26315E+01
  1.73860E+04  9.78809E+00  1.72903E+04  6.65035E+01  1.71334E+04  3.69494E+01  1.70741E+04  5.20817E+01
  1.70930E+04 -8.09107E+01  1.68889E+04  2.53132E+01  1.68974E+04  7.23132E+01  1.67393E+04  8.37162E+00
  1.67568E+04  3.63146E+01  1.66903E+04  3.21677E+01  1.65158E+04 -3.62891E+01  1.64911E+04 -2.06674E+01
  1.63368E+04 -2.85671E+01  1.62836E+04 -4.50552E+01  1.62856E+04  4.73574E+01  1.61673E+04 -3.12952E+01
  1.60720E+04 -4.97742E+01  1.59530E+04 -1.27056E+01  1.60350E+04 -4.80855E+01  1.58203E+04  1.88840E+01
  1.58224E+04  1.50447E+01  1.58205E+04 -6.62669E+01  1.56479E+04 -9.98118E-01  1.55233E+04 -9.09884E+00
  1.54633E+04  4.79639E+01  1.53699E+04 -6.50626E+01  1.53991E+04 -3.91482E+01  1.53134E+04  6.00336E+01
  1.52424E+04 -4.39600E+01  1.52150E+04  2.35959E+01  1.51295E+04 -5.00184E+01  1.50357E+04 -1.55571E+01
  1.48593E+04  3.00778E+01  1.48583E+04  5.50070E+01  1.48419E+04 -4.25812E+01  1.47251E+04 -3.66273E+01
  1.46330E+04  4.05357E+01  1.45218E+04 -5.71823E+01  1.45300E+04 -3.27274E+01  1.44395E+04  1.28763E+01
  1.44262E+04 -4.42598E+01  1.43512E+04 -2.67962E+01  1.42137E+04 -3.59286E+01  1.41675E+04  8.30228E+01
  1.41850E+04  6.20706E+01  1.39848E+04 -6.06374E+00  1.39853E+04  4.66324E+01  1.39898E+04  5.84624E+01
  1.38825E+04  3.91683E+01  1.38564E+04 -2.47096E+01  1.38121E+04  9.62113E+00  1.37344E+04  6.12641E+01
  1.36749E+04 -3.35442E+01  1.35530E+04  5.06623E+01  1.35161E+04 -8.93747E+00  1.33555E+04 -6.55623E+01
  1.32980E+04  1.97346E+01  1.32449E+04 -2.61598E+01  1.31887E+04 -6.26560E+01  1.32345E+04  2.41099E+01
  1.30751E+04  3.09318E+01  1.30178E+04 -6.00919E+01  1.29767E+04 -5.45856E+01  1.29041E+04  5.23724E+01
  1.28306E+04  9.20765E+00  1.27305E+04  6.58040E+01  1.28059E+04  2.35208E+01  1.27298E+04 -6.85723E+01
  1.26968E+04 -7.37011E+01  1.26352E+04  3.84383E+01  1.25251E+04 -1.22160E+01  1.25119E+04 -3.14797E+01
  1.23605E+04 -9.70582E-01  1.22529E+04  7.89185E+01  1.22588E+04  2.39451E+01  1.22819E+04 -8.22584E+01
  1.21531E+04  5.85324E+01  1.21384E+04  6.98292E+01  1.20572E+04  3.25385E+00  1.20484E+04 -6.29448E+01
  1.19997E+04  7.64502E+01  1.19167E+04  1.84142E+00  1.17678E+04  7.00144E+01  1.18107E+04  7.13055E+01
  1.17504E+04  4.27005E+00  1.17062E+04 -6.36071E+01  1.16179E+04 -3.51910E+01  1.14940E+04  2.37935E+01
  1.15297E+04 -8.05887E+01  1.14825E+04 -1.64301E+01  1.14138E+04 -1.20919E+01  1.13720E+04  5.78420E+01
  1.12971E+04 -1.24058E+01  1.11512E+04  8.46960E+01  1.11759E+04  7.24477E+01  1.11121E+04 -6.94185E+01
  1.10234E+04  3.99415E+01  1.09865E+04  2.89326E+01  1.09492E+04  5.71085E+00  1.09444E+04  4.44973E+01
  1.07937E+04 -7.41678E+01  1.07684E+04 -3.67478E+01  1.08148E+04 -4.33826E+01  1.07198E+04  4.24034E+01
  1.06560E+04  1.51121E+01  1.05435E+04 -1.60073E+01  1.05331E+04 -6.02638E+01  1.04497E+04 -3.61109E+01
  1.04639E+04  6.26096E+01  1.04085E+04  4.19893E+01  1.03816E+04 -1.99114E+01  1.02704E+04 -8.23270E+01
  1.02977E+04  6.65733E+01  1.02366E+04 -5.62512E-01  1.01139E+04  6.42300E+01  1.00503E+04 -7.01606E+01
  1.01047E+04  4.71820E+01  1.00092E+04  3.52590E+00  1.00458E+04  2.72490E+01  9.85637E+03 -2.19579E+01
  9.94699E+03  1.87305E+01  9.80802E+03 -3.85561E+00  9.82474E+03 -5.18574E+00  9.79785E+03 -7.09142E+01
  9.63835E+03  3.24437E+01  9.72449E+03  5.49609E+01  9.54668E+03  2.03281E+01  9.55445E+03  8.55541E+01
  9.44931E+03  8.05150E+00  9.41303E+03 -6.62068E+01  9.47772E+03  6.17710E+00  9.43543E+03  4.80367E+01
  9.34014E+03  5.90347E+01  9.31457E+03 -4.56238E+01  9.15667E+03  3.30577E+01  9.23657E+03  6.88732E+01
  9.10392E+03  6.75567E+00  9.12627E+03 -2.48367E+01  9.13823E+03  5.52216E+01  9.03083E+03  1.34164E+01
  9.03983E+03  4.73645E+01  8.90473E+03 -7.38282E+01  8.83639E+03 -5.68168E+01  8.85544E+03  5.01456E+01
  8.78117E+03  3.35496E+01  8.82931E+03 -2.77324E+01  8.74876E+03 -3.43803E+01  8.72425E+03  6.27828E+01
  8.68488E+03  5.88578E+01  8.66599E+03  4.94153E+01  8.53504E+03  3.44968E+01  8.45401E+03  6.73503E+01
