 $NMID ID='dataset10', FMTDAT='(8E13.5)'
 TRAMP=1, VOLUME=1 $END
  2.66467E+02  1.02166E+02  4.68816E+02  2.09525E+02  3.17674E+02  3.63171E+02  1.24613E+02  4.19013E+02
 -4.81420E+01  3.87221E+02 -1.79549E+02  2.72818E+02 -2.22931E+02  1.32643E+02 -1.98827E+02  1.19313E+01
 -1.22771E+02 -6.29006E+01 -3.56265E+01 -7.59122E+01  2.12203E+01 -4.51520E+01  5.78748E+01  5.40652E+00
  4.24343E+01  5.04737E+01  1.81370E+01  8.33261E+01 -2.73410E+01  9.34670E+01 -5.23265E+01  7.19607E+01
 -7.78336E+01  4.88096E+01 -8.99035E+01  2.81833E+01 -8.69685E+01  8.77372E+00 -8.46846E+01 -2.04418E+01
 -7.71806E+01 -3.35434E+01 -6.08065E+01 -6.12665E+01 -3.74099E+01 -7.68699E+01 -9.24103E+00 -7.70259E+01
  2.57213E+01 -7.08036E+01  4.76471E+01 -4.49762E+01  5.04814E+01 -4.37071E+00  3.63166E+01  2.72866E+01
  1.40860E+01  4.72455E+01 -1.79446E+01  4.39964E+01 -5.50484E+01  1.84117E+01 -6.69826E+01 -5.91135E+00
 -5.55426E+01 -4.93772E+01 -3.57732E+01 -7.46971E+01  6.21904E+00 -7.88060E+01  3.24362E+01 -7.52447E+01
  5.56754E+01 -6.12167E+01  7.11932E+01 -3.07403E+01  7.55841E+01 -2.22903E+00  6.82270E+01  2.28953E+01
  6.02604E+01  3.12154E+01  3.80071E+01  4.90503E+01  2.87670E+01  5.47079E+01  4.95322E+00  5.68354E+01
 -9.42022E+00  5.08590E+01 -2.95899E+01  3.57838E+01 -3.32969E+01  1.51579E+01 -2.25709E+01  1.47068E-01
 -4.40498E+00 -1.20838E+01  1.11360E+01 -4.42377E+00  1.63784E+01  2.10767E+00  2.27367E+01  2.74082E+01
  1.01714E+01  3.73422E+01 -2.10220E+01  5.16712E+01 -4.62456E+01  4.31603E+01 -5.86243E+01  1.74055E+01
 -6.57317E+01 -2.58743E+01 -4.20568E+01 -5.14881E+01 -9.07722E+00 -6.20188E+01  2.66655E+01 -6.46539E+01
  5.98976E+01 -3.73178E+01  7.20787E+01 -6.10632E+00  6.10720E+01  3.06244E+01  3.90439E+01  6.12151E+01
  7.52463E+00  6.15176E+01 -2.35268E+01  5.46052E+01 -4.46810E+01  4.23245E+01 -5.34089E+01  1.85457E+01
 -4.36889E+01 -5.07585E+00 -3.87529E+01 -2.23992E+01 -2.32895E+01 -2.08204E+01 -1.28134E+01 -2.39221E+01
 -4.31371E+00 -2.46027E+01  5.08612E+00 -1.87436E+01  8.73305E+00 -1.75306E+01  1.70500E+01 -1.28095E+01
  1.80415E+01 -7.90059E+00  8.40800E+00  1.31102E+01  5.20782E-01  1.30497E+01 -1.04100E+01  1.64525E+01
 -2.50947E+01  9.47976E+00 -3.76310E+01 -1.70023E+01 -3.06527E+01 -2.99616E+01 -4.89521E+00 -4.50882E+01
  1.76634E+01 -4.90342E+01  4.14956E+01 -4.01919E+01  5.30821E+01 -1.70946E+01  4.60570E+01  1.01656E+01
  3.90748E+01  3.80864E+01  6.62126E+00  4.88305E+01 -1.13479E+01  3.48389E+01 -3.11654E+01  2.68472E+01
 -4.14066E+01 -1.40001E+00 -3.35620E+01 -2.27516E+01 -9.97639E+00 -3.84181E+01  1.07860E+01 -4.21684E+01
  3.15214E+01 -3.45894E+01  4.64248E+01 -1.13602E+01  5.23452E+01  1.59996E+01  4.09267E+01  3.44643E+01
  2.47746E+01  4.87117E+01  4.40473E+00  4.86811E+01 -7.41102E+00  5.50646E+01 -2.72095E+01  4.71775E+01
 -3.98976E+01  3.44381E+01 -4.09135E+01  1.87682E+01 -4.38962E+01  2.79712E+00 -4.06102E+01 -1.97444E+01
 -2.48300E+01 -2.80606E+01 -9.29727E+00 -3.84764E+01  1.14252E+01 -3.23939E+01  1.50416E+01 -2.09716E+01
  2.48737E+01 -8.21751E+00  2.04781E+01  6.43950E+00  9.54365E+00  2.11019E+01 -6.28127E+00  1.53607E+01
 -1.52592E+01  7.32975E+00 -2.59813E+01 -7.35402E+00 -2.04053E+01 -1.93286E+01 -8.02417E+00 -2.69202E+01
  1.19238E+01 -3.33074E+01  2.99696E+01 -1.86119E+01  3.64793E+01 -6.94970E-03  3.11400E+01  7.23143E+00
  2.54159E+01  2.86432E+01  1.13276E+01  3.02288E+01 -8.31758E+00  2.44947E+01 -1.92515E+01  2.24933E+01
 -2.63277E+01  1.47093E+01 -3.08928E+01 -8.30342E+00 -2.37629E+01 -1.42891E+01 -1.86158E+01 -2.06929E+01
 -1.10913E+01 -2.45305E+01  3.46866E+00 -3.18728E+01  1.05099E+01 -3.00276E+01  2.48966E+01 -2.42358E+01
  2.99186E+01 -9.80282E+00  3.68813E+01  1.71157E+00  3.24914E+01  9.87095E+00  2.21002E+01  2.38084E+01
  1.48967E+01  3.42291E+01 -6.41612E+00  2.46969E+01 -1.59349E+01  2.00719E+01 -1.56969E+01  8.00350E+00
 -1.27796E+01  5.31760E+00 -6.52630E+00 -1.20398E+00 -5.67771E+00 -6.46479E+00  4.48036E+00  3.23666E+00
  5.58883E+00  4.33396E+00 -3.49023E+00  1.78661E+01 -6.55192E+00  1.75386E+01 -1.90525E+01  1.87275E+01
 -2.33742E+01  4.94236E+00 -3.26617E+01 -3.03726E+00 -2.84160E+01 -2.08977E+01 -1.32204E+01 -3.09416E+01
 -6.40027E-01 -3.01896E+01  1.14159E+01 -2.77337E+01  2.38678E+01 -2.49871E+01  3.09922E+01 -1.16145E+01
  3.17598E+01  1.36075E+00  2.02530E+01  1.23956E+01  1.58119E+01  2.85363E+01 -2.70962E+00  2.84991E+01
 -1.47082E+01  2.93303E+01 -1.99541E+01  1.38610E+01 -2.84507E+01  2.32068E+00 -3.49111E+01 -1.11156E+01
 -2.85397E+01 -2.39142E+01 -2.02892E+01 -3.50640E+01  5.15403E-01 -3.48239E+01  1.28132E+01 -3.31528E+01
  1.69236E+01 -2.26840E+01  2.69132E+01 -1.33228E+01  2.56999E+01 -2.14052E+00  2.38786E+01 -3.86499E+00
  1.39903E+01  7.82861E-01  9.55878E+00  9.05309E+00  4.91192E+00  5.67277E+00  7.93020E+00  4.23653E+00
  1.47545E+01  3.62996E-01  1.63661E+01  6.98494E+00  2.05188E+01  1.03053E+01  1.88585E+01  1.36831E+01
  1.62955E+01  1.99897E+01  8.81592E+00  2.80237E+01  2.65016E+00  3.10967E+01 -3.51369E+00  2.70606E+01
 -1.37750E+01  2.61187E+01 -2.53528E+01  1.60494E+01 -3.03316E+01  3.90198E+00 -3.19933E+01 -5.98605E+00
 -2.10941E+01 -8.67034E+00 -1.88077E+01 -1.26174E+01 -1.25550E+01 -2.50484E+01 -3.65695E+00 -2.30916E+01
  4.35919E+00 -1.33490E+01  8.45639E+00 -9.56587E+00  1.11126E+01  8.95092E-01  6.93000E+00  8.85453E+00
  8.68369E+00  7.50292E+00 -1.78899E+00  8.68814E+00 -8.86432E+00  1.05375E+01 -7.27061E+00  1.37262E+00
 -7.87838E+00 -6.98802E+00 -4.25930E+00 -1.01205E+01  5.76539E+00 -1.40364E+01  1.61174E+00 -7.20249E+00
  4.26440E+00 -1.53634E+00  4.40465E+00  4.76977E+00  7.04736E-01  9.03302E+00  2.18721E+00  6.81707E+00
 -3.85042E+00  6.34780E+00 -9.78628E+00  1.89821E+00 -1.37698E+01  1.67642E+00 -1.06960E+01 -8.65380E+00
 -4.16848E+00 -1.72587E+01  3.23384E+00 -1.59344E+01  1.76283E+00 -1.89883E+01  1.34231E+01 -1.98478E+01
  1.51856E+01 -5.89988E+00  2.75802E+01 -1.48721E+00  2.25915E+01  4.17123E+00  2.37852E+01  1.90750E+01
  1.33307E+01  1.64975E+01  7.30232E+00  2.51209E+01 -5.76332E-01  2.68965E+01 -1.76792E+01  2.17342E+01
 -1.26670E+01  9.71522E+00 -1.76809E+01  2.29999E+00 -1.44873E+01 -7.08613E+00 -1.22004E+01 -1.17703E+01
 -3.88927E-02 -1.73905E+01  1.95530E+00 -1.21081E+01  1.39624E+01 -2.20923E+00  8.41992E+00 -5.49160E-01
  6.32300E+00  7.76478E+00 -5.77506E-02  8.37583E+00  4.01872E+00  1.30644E+01  2.98218E-02  1.93620E+00
 -7.74302E+00  7.24503E+00 -4.00660E+00 -1.75979E+00 -6.91814E+00 -2.88072E+00 -4.31137E+00 -1.67514E+00
 -2.05039E+00  1.52509E+00 -9.11485E-01  2.52580E+00 -3.02525E+00  1.14260E+01 -6.79652E+00  1.07973E+01
 -6.28340E+00  1.52656E+01 -9.83944E+00  1.05965E+01 -1.98282E+01  1.06451E+01 -1.65494E+01  3.20080E+00
 -1.69773E+01 -1.28468E+01 -1.83520E+01 -1.66461E+01 -3.96868E+00 -1.54661E+01 -3.59538E+00 -2.07333E+01
  7.12239E+00 -2.24355E+01  1.33327E+01 -1.30552E+01  1.68936E+01 -9.04442E+00  1.69883E+01  4.80332E+00
  1.35913E+01  9.33358E+00  8.87116E+00  7.03589E+00 -3.91946E+00  4.35682E+00 -3.80526E+00  9.13418E+00
 -1.11178E+01 -3.14159E+00 -1.40891E+00 -7.02606E+00 -1.49363E+00 -1.24815E+01  9.61388E+00 -1.38987E+01
  1.34699E+01 -6.72676E+00  1.02667E+01 -2.39556E+00  7.73010E+00  6.99743E+00  6.13155E+00  2.98681E+00
  4.42480E+00  9.07315E+00  9.00991E-01  1.44690E+01  1.99154E+00  8.51041E+00 -4.18359E+00  8.14891E+00
 -1.24531E+01  1.04724E-01 -3.81758E+00  2.91822E+00 -5.02079E+00 -9.58703E+00  2.39944E+00 -9.58249E+00
 -1.88750E+00 -1.15427E+01  1.19646E+01 -2.98134E+00  1.48267E+01  6.00563E-01  1.01319E+01  6.15744E+00
  1.19599E+01  7.83143E+00  3.16211E+00  1.61070E+01  9.31002E-01  1.13936E+01 -5.74868E+00  9.77773E+00
 -1.46659E+01  8.20953E+00 -1.32126E+01  3.44886E+00 -1.79822E+01 -3.04525E+00 -9.74369E+00 -1.20970E+01
  1.32047E+00 -1.73947E+01  4.70905E+00 -1.05162E+01  8.79630E+00 -1.49480E+01  6.97220E+00 -2.24015E+00
  1.55256E+01  3.86326E+00  1.32650E+01  2.56837E+00  3.49780E+00  3.74428E+00  1.51656E+00  1.24137E+01
 -4.51311E+00  1.27189E+01 -9.41351E+00  1.20636E+01 -4.51678E+00  5.87560E+00 -8.43428E+00  3.80025E+00
 -4.75156E+00  4.93901E+00 -7.32557E+00 -3.06522E+00 -8.16821E+00 -5.68926E+00  7.21050E-01 -6.92236E+00
  4.74247E+00 -1.90626E+00 -4.29157E+00  4.26800E+00 -3.20404E+00  1.76160E+00 -2.33876E+00  2.33439E+00
 -5.67110E+00 -2.49464E+00 -1.11596E+01 -1.94832E+00 -4.81456E+00 -4.98102E+00 -4.70717E+00 -1.24735E+01
 -1.54488E-01 -1.62161E+01  4.13647E+00 -1.43488E+01  1.39374E+01 -5.88288E+00  1.63442E+01 -8.34546E+00
  1.84441E+01  5.45988E+00  7.38395E+00  6.08079E+00  3.22162E+00  1.37167E+01  8.68851E+00  1.67592E+01
 -3.20606E-01  1.19128E+01  5.26844E-01  3.62132E+00 -6.83484E+00  7.16486E+00 -1.01821E+01  6.16656E+00
 -5.15551E+00  4.18255E+00  1.87034E+00  2.36628E+00  3.15848E+00  2.91365E-01 -3.73357E+00 -1.49923E+00
 -2.02024E+00  3.84840E+00 -4.95895E+00  4.46451E+00 -1.26698E+00  7.43922E+00 -8.15735E+00 -1.99438E+00
 -4.61482E+00  2.29572E+00 -4.56824E+00 -4.92712E+00 -4.46639E+00 -2.68685E+00 -7.46485E+00 -9.44408E+00
 -6.16091E+00 -3.48076E+00 -5.31949E+00 -8.04738E+00  1.46159E+00 -3.15274E+00 -3.89591E-02 -2.30686E+00
  8.95223E+00 -2.65109E+00  2.39256E+00 -1.53317E+00  3.14155E+00  4.36499E+00 -6.93287E+00  8.89446E+00
 -1.24228E+01  2.14979E+00 -7.91029E+00 -5.58257E-01 -1.45208E+01 -5.71131E+00 -6.48016E+00 -1.07686E+01
 -2.53201E+00 -9.90621E+00  7.06539E+00 -1.56763E+01  1.35619E+01 -8.23428E+00  8.16624E+00 -7.72803E+00
  1.01054E+01 -1.85557E+00  1.02703E+01 -3.29057E+00  9.20326E+00  1.23055E+00  8.90450E+00  1.18115E+01
  6.70577E-01  1.00690E+01  7.62177E+00  1.25367E+01 -5.14111E+00  6.98083E+00 -6.25861E+00  1.05283E+01
  6.58035E-01  5.06549E-01  1.61359E+00  3.99429E+00 -6.32176E+00 -1.06066E+00  2.01504E+00 -6.13712E-02
 -2.87297E+00  8.54866E+00 -7.95222E+00  3.55304E+00 -8.95070E+00  3.67163E+00 -8.66795E+00  8.65244E+00
 -1.16871E+01  4.39360E+00 -9.53226E+00 -2.84785E+00 -1.37244E+01 -8.31733E+00 -4.84615E+00 -1.41899E+01
