 $NMID ID='dataset19', FMTDAT='(8E13.5)'
 TRAMP=1, VOLUME=1 $END
  4.98946E+04  2.53678E+01  4.96808E+04 -3.18920E+01  4.94577E+04 -2.70576E+01  4.92202E+04  1.89450E+01
  4.90164E+04  1.03188E+00  4.87415E+04  4.57469E+01  4.84961E+04  4.07858E+00  4.82958E+04  2.94520E+01
  4.80992E+04  4.67618E+01  4.79020E+04 -2.60571E+01  4.76200E+04  9.27641E+00  4.74505E+04 -1.84676E+01
  4.72302E+04  2.76313E+01  4.69748E+04  1.33490E+01  4.67037E+04 -2.41473E+01  4.65140E+04 -4.28107E+01
  4.63438E+04  3.85664E+01  4.61163E+04 -4.37972E+01  4.58823E+04 -3.93201E+01  4.56140E+04 -7.32951E+00
  4.54085E+04  3.32572E+01  4.52473E+04 -2.43932E+01  4.50237E+04 -2.18244E+01  4.47978E+04  3.90313E+01
  4.46371E+04 -3.46784E+01  4.43982E+04  4.63935E+01  4.41448E+04  2.71028E+01  4.39257E+04  3.48758E+01
  4.38017E+04  1.65401E+01  4.35955E+04 -3.73094E+01  4.33401E+04  1.28416E+00  4.31412E+04 -2.26741E+00
  4.29758E+04  7.01223E+00  4.27659E+04 -3.02028E+01  4.25743E+04  1.28844E+00  4.23657E+04 -3.76535E+01
  4.21264E+04  4.39924E+01  4.19289E+04  3.50438E+01  4.17308E+04  5.60609E+00  4.15123E+04  4.26898E-01
  4.13772E+04  2.33090E+01  4.11886E+04  3.96185E+00  4.09996E+04  2.62085E+01  4.07883E+04 -4.27348E+01
  4.06047E+04 -7.88780E+00  4.03727E+04  1.20365E+01  4.02236E+04  1.01854E+01  4.00575E+04 -1.86871E+01
  3.97985E+04 -4.54891E+01  3.96123E+04  1.91530E+01  3.94386E+04 -3.34846E+00  3.92359E+04  2.99928E+01
  3.91143E+04  3.86548E+01  3.88984E+04 -2.39911E+01  3.86677E+04 -3.73625E+01  3.85357E+04 -4.39736E+01
  3.83311E+04  2.29150E+01  3.81363E+04 -2.92575E+01  3.80094E+04 -1.31474E+01  3.77798E+04 -3.37386E+01
  3.76213E+04 -4.48843E+01  3.74860E+04 -2.45718E+01  3.72778E+04 -1.83365E-02  3.70685E+04  3.26326E+01
  3.69426E+04  4.32252E+01  3.67641E+04  5.62141E+00  3.65467E+04 -2.14272E+01  3.63921E+04 -1.14636E+01
  3.62844E+04  2.28746E+01  3.60661E+04 -2.95322E+01  3.59256E+04 -4.07314E+01  3.57784E+04 -1.03612E+01
  3.55644E+04 -2.82562E+01  3.53615E+04 -1.24257E+01  3.52589E+04  3.62485E+01  3.50700E+04 -3.10927E+01
  3.49009E+04  3.19656E+01  3.47254E+04  1.63772E+01  3.45641E+04  3.55122E+01  3.44303E+04 -3.13395E+01
  3.42771E+04  1.88644E+01  3.40605E+04 -4.22413E+01  3.39146E+04 -4.23240E+01  3.37911E+04 -4.40176E+01
  3.36299E+04  4.44333E+01  3.34867E+04  3.61591E+01  3.33361E+04  1.54765E+00  3.31600E+04 -1.49946E+01
  3.30112E+04 -3.55150E-01  3.28557E+04  7.52029E+00  3.26831E+04  3.08546E+01  3.25489E+04  3.06936E+01
  3.24018E+04 -2.87789E+01  3.21779E+04  4.35589E+01  3.20677E+04 -4.70411E+01  3.18805E+04 -1.46250E+01
  3.18078E+04  3.86386E+01  3.16551E+04  4.65582E+01  3.14382E+04 -1.04247E+01  3.12726E+04 -9.67466E+00
  3.11531E+04 -1.98588E+01  3.10353E+04 -3.87514E+01  3.08564E+04 -1.78908E+01  3.07293E+04 -2.72749E+01
  3.05693E+04  4.47512E+01  3.04470E+04 -1.20668E+01  3.02694E+04 -4.93301E+00  3.01125E+04  2.54770E+01
  3.00087E+04  1.15144E+01  2.98295E+04 -1.75846E+01  2.97307E+04 -4.36058E+01  2.95472E+04  4.21535E+01
  2.94805E+04 -4.59237E+01  2.92756E+04 -4.36240E+01  2.91543E+04 -1.60873E+01  2.90047E+04  1.62009E+01
  2.88718E+04 -4.18819E+01  2.87619E+04 -2.02331E+01  2.86392E+04  6.45932E+00  2.84750E+04  3.39282E+01
  2.83461E+04  4.75368E+00  2.81943E+04 -2.05883E+01  2.80945E+04 -3.59503E+01  2.79237E+04 -1.48402E+01
  2.78742E+04  1.73226E+01  2.77195E+04 -3.63956E+01  2.75377E+04 -3.15880E+01  2.74805E+04  2.60792E+01
  2.72894E+04  3.54199E+01  2.71925E+04  1.69222E+01  2.70365E+04  3.56018E+01  2.69688E+04  7.49049E+00
  2.68335E+04 -7.62954E+00  2.66981E+04  1.98461E+01  2.65552E+04 -2.88411E+01  2.63845E+04  3.89294E+01
  2.62604E+04 -2.68801E+01  2.61443E+04 -2.96266E+01  2.60438E+04  4.67318E+01  2.59557E+04  1.62609E+01
  2.58434E+04 -1.35079E+01  2.56556E+04 -3.82205E+01  2.55835E+04  3.87414E+01  2.54255E+04  2.76869E+01
  2.53535E+04  4.46369E+01  2.52285E+04 -3.08680E+01  2.50963E+04 -3.41837E+01  2.50062E+04  3.24570E+01
  2.48471E+04 -4.21751E+01  2.47005E+04 -4.26610E+01  2.45955E+04 -2.30072E+00  2.44651E+04 -4.62048E-01
  2.43964E+04 -3.25640E+01  2.43220E+04 -8.36012E+00  2.41823E+04 -1.76536E+01  2.40642E+04 -3.71393E+01
  2.39224E+04  3.59244E+01  2.37854E+04  3.35742E+01  2.37113E+04  5.99064E+00  2.36293E+04  3.59682E+01
  2.35093E+04  2.53855E+00  2.34039E+04  3.79787E+01  2.33123E+04  1.58865E+01  2.31735E+04  1.75038E+01
  2.30777E+04 -8.04650E+00  2.29397E+04  1.16852E+01  2.28405E+04 -3.65338E+01  2.27523E+04 -1.68658E+01
  2.25848E+04  1.40578E+01  2.24878E+04  8.58872E+00  2.24559E+04  4.29455E+00  2.23478E+04  1.84372E+01
  2.22420E+04 -3.77272E+01  2.20554E+04  4.16482E+01  2.20215E+04 -4.17897E+01  2.18500E+04 -2.77378E+00
  2.18187E+04 -2.06597E+01  2.17009E+04  8.53995E+00  2.15858E+04 -7.30753E+00  2.14726E+04  3.30895E+01
  2.13631E+04 -3.06459E+01  2.12428E+04  1.00697E+01  2.11818E+04 -2.14527E+01  2.11073E+04 -2.08966E+00
  2.09998E+04  2.19543E+01  2.08490E+04  1.52092E+00  2.07538E+04 -1.47718E+01  2.06509E+04  1.24010E+01
  2.05567E+04 -2.96381E+01  2.04481E+04 -3.38230E+01  2.04030E+04  3.78013E+01  2.03420E+04  9.16754E-01
  2.01611E+04 -5.57229E+00  2.01344E+04 -2.94344E+01  2.00427E+04 -2.36583E+01  1.99205E+04  3.97508E+01
  1.98424E+04 -2.16376E+01  1.97205E+04 -2.19161E+01  1.96676E+04 -3.02210E+01  1.95261E+04  1.03767E+01
  1.94260E+04 -3.29161E+01  1.93236E+04 -4.65037E+01  1.92658E+04  3.60404E+01  1.91375E+04 -1.68130E+01
  1.90602E+04  2.41882E+00  1.89922E+04 -1.12517E+01  1.89598E+04  1.16210E+01  1.88160E+04  3.03633E+00
  1.87508E+04  3.87051E+01  1.86345E+04  3.28568E+01  1.85396E+04 -2.62857E+01  1.84735E+04  1.63319E+01
  1.83870E+04 -4.42498E+01  1.83347E+04  2.81647E+01  1.82472E+04 -3.86716E+01  1.81002E+04 -2.60948E+01
  1.80513E+04 -4.28339E+01  1.79378E+04  4.29441E+01  1.79088E+04  5.59842E+00  1.78286E+04  2.61135E+01
  1.76614E+04 -1.67089E+01  1.76322E+04 -7.45164E+00  1.75404E+04 -2.62494E+01  1.74262E+04  2.50516E+01
  1.73947E+04 -3.96509E+01  1.72646E+04 -1.27774E+01  1.72155E+04  4.25504E+01  1.71117E+04  1.20731E+01
  1.70644E+04  8.76502E+00  1.69997E+04 -3.33920E+01  1.68812E+04 -1.11618E+01  1.67913E+04  3.42131E+01
  1.67583E+04 -3.65492E+01  1.66214E+04 -8.90151E+00  1.66145E+04 -2.41448E+01  1.65121E+04  1.21058E+01
  1.64277E+04  2.65747E+01  1.63216E+04  1.57550E+01  1.62952E+04  2.51193E+01  1.62221E+04 -1.42190E+01
  1.61050E+04 -1.30084E+01  1.60372E+04  3.09917E+01  1.60037E+04  4.01006E+00  1.58677E+04  1.50943E+01
  1.57863E+04 -2.09291E+01  1.57693E+04 -3.27052E+01  1.56315E+04 -3.75784E+01  1.56301E+04  3.38717E+00
  1.55139E+04  1.26719E+01  1.54045E+04 -3.95173E+00  1.53583E+04 -4.29065E+01  1.53259E+04  3.35946E+01
  1.52009E+04 -3.42016E+01  1.51941E+04 -4.41523E+01  1.51269E+04 -3.89456E+01  1.49993E+04  9.81037E+00
  1.49469E+04  2.62568E+01  1.48371E+04 -4.21549E+01  1.47696E+04 -2.87888E+01  1.47410E+04 -2.57366E+01
  1.46198E+04 -2.95049E+01  1.45642E+04  1.02160E+01  1.45197E+04  2.70691E+01  1.44685E+04  1.02040E+01
  1.43488E+04 -4.66857E+01  1.43427E+04 -4.89713E+00  1.42351E+04 -1.06034E+01  1.42224E+04 -4.53088E+01
  1.41396E+04  2.83015E+01  1.40966E+04 -3.47180E+01  1.39502E+04 -2.32676E+01  1.39309E+04 -3.87219E+01
  1.38183E+04  4.62606E+01  1.37723E+04  3.18042E+01  1.36829E+04 -3.39997E+01  1.36569E+04  3.35142E+01
  1.36109E+04 -8.21962E+00  1.34908E+04 -3.91180E+01  1.34763E+04 -5.04567E-01  1.34114E+04 -1.37262E+01
  1.33456E+04  4.61786E+01  1.32694E+04  4.05184E+01  1.32447E+04 -3.61249E+01  1.31588E+04  1.76879E+01
  1.30758E+04 -2.66913E+01  1.30733E+04  3.89346E+01  1.30025E+04  2.92113E+01  1.28825E+04 -2.17818E+01
  1.28348E+04  9.94441E+00  1.27897E+04  3.47345E+01  1.27385E+04  9.22324E+00  1.26522E+04 -1.94555E+01
  1.25739E+04  8.48684E+00  1.25339E+04  2.87930E+01  1.25025E+04  2.95236E+01  1.24629E+04  2.43797E+01
  1.23577E+04  1.17377E+01  1.23287E+04 -1.91072E+01  1.22721E+04 -4.53020E+01  1.21598E+04  2.88918E+01
  1.21312E+04 -2.11737E+01  1.21129E+04  3.97975E+01  1.20744E+04 -3.13881E+01  1.19974E+04 -1.20567E+01
  1.18991E+04  1.06446E+01  1.18530E+04  4.01447E+00  1.18490E+04  4.29786E+01  1.17163E+04  2.08369E+01
  1.17053E+04  3.57082E+01  1.16238E+04  2.31133E+01  1.15646E+04  4.49647E+01  1.15271E+04 -6.88458E-01
  1.15236E+04  2.64555E+01  1.13884E+04 -1.76885E+01  1.13376E+04  1.27277E+01  1.13338E+04 -4.18103E+01
  1.13063E+04 -3.89507E+01  1.12417E+04  2.07684E+01  1.11521E+04  4.49410E+01  1.10788E+04 -1.53784E+01
  1.10805E+04 -2.34784E+01  1.09834E+04 -2.82179E+01  1.09916E+04 -5.26156E+00  1.08871E+04 -3.06952E+00
  1.08545E+04  1.25272E+01  1.07590E+04 -3.48322E+01  1.07008E+04  3.84814E+01  1.06872E+04 -2.47941E+01
  1.05976E+04  3.75982E+01  1.05523E+04  1.88371E+01  1.05726E+04 -4.35281E+00  1.04950E+04 -1.51584E+01
  1.04047E+04 -4.19160E+01  1.03556E+04 -1.11325E+01  1.03314E+04 -4.47320E+01  1.03347E+04 -1.39166E+01
  1.02529E+04 -2.45002E+01  1.02449E+04 -2.24674E+01  1.01228E+04 -2.52942E+01  1.00961E+04  3.32887E+01
  1.00849E+04  3.48528E+01  9.97480E+03  1.89348E+01  9.94183E+03 -3.09479E+01  9.90022E+03  7.08887E+00
  9.89606E+03 -2.01342E+01  9.83050E+03 -2.12960E+01  9.79297E+03  3.15018E+01  9.70946E+03  2.89265E+01
  9.65978E+03 -7.89524E+00  9.67510E+03 -3.22672E+01  9.63887E+03  4.38258E+01  9.54426E+03  3.90322E+01
  9.50973E+03 -1.67616E+00  9.42220E+03  6.29852E+00  9.40929E+03 -2.94748E+01  9.40122E+03  4.38377E+01
  9.30061E+03 -6.20028E+00  9.28025E+03 -9.68335E+00  9.28437E+03 -2.79095E+01  9.20186E+03  1.82485E+00
  9.19946E+03 -1.57224E+01  9.07942E+03 -3.34910E+00  9.03735E+03  3.57995E+01  9.00542E+03  1.89153E+01
  8.95018E+03  1.69530E+01  8.90794E+03 -4.04245E+01  8.87165E+03 -1.36243E+00  8.82309E+03 -7.45592E+00
  8.79293E+03 -1.85747E+01  8.77772E+03 -4.59481E+01  8.72617E+03 -2.52638E+01  8.65225E+03  1.84283E+01
  8.65160E+03 -1.42342E+01  8.62473E+03 -3.34748E+01  8.52461E+03 -2.16374E+01  8.56498E+03  2.19180E+00
