 $NMID ID='dataset26', FMTDAT='(8E13.5)'
 TRAMP=1, VOLUME=1 $END
  2.81686E+02  1.20722E+02  4.86100E+02  2.61292E+02  2.90101E+02  4.43889E+02  3.13613E+01  4.76830E+02
 -1.89145E+02  3.76724E+02 -3.26788E+02  1.90820E+02 -3.17354E+02 -2.71449E+01 -2.10663E+02 -1.79411E+02
 -4.30330E+01 -2.39058E+02  1.06088E+02 -1.83455E+02  1.84848E+02 -6.91661E+01  1.77044E+02  6.64272E+01
  9.19015E+01  1.59785E+02 -1.17810E+01  1.63110E+02 -1.03087E+02  1.18007E+02 -1.42122E+02  3.29193E+01
 -1.08641E+02 -3.51800E+01 -5.38802E+01 -8.89470E+01  1.24876E+00 -6.64320E+01  4.36608E+01 -2.14379E+01
  2.31132E+01  4.13578E+01 -2.97990E+01  7.57841E+01 -8.05136E+01  5.20653E+01 -1.28511E+02  8.89817E+00
 -1.22775E+02 -5.44257E+01 -7.18226E+01 -1.29589E+02  8.71542E+00 -1.45458E+02  9.10701E+01 -1.09517E+02
  1.23053E+02 -3.80092E+01  1.31869E+02  4.17274E+01  8.50180E+01  1.23890E+02  7.15417E+00  1.51586E+02
 -7.43420E+01  1.28249E+02 -1.43886E+02  7.55555E+01 -1.53439E+02 -4.67903E+00 -1.24598E+02 -7.68496E+01
 -6.31695E+01 -1.38468E+02  1.54350E+01 -1.53450E+02  9.28709E+01 -1.05664E+02  1.30811E+02 -4.30693E+01
  1.36063E+02  2.08786E+01  1.10557E+02  6.91748E+01  5.21248E+01  1.12295E+02 -1.01282E+01  9.41428E+01
 -4.55297E+01  6.83703E+01 -6.13342E+01  1.79211E+01 -4.28397E+01 -3.11803E+01 -3.32817E+00 -6.28351E+01
  2.42025E+01 -4.35479E+01  6.74492E+01 -1.70960E+01  8.10497E+01  1.80003E+01  5.43215E+01  5.69968E+01
  4.33159E+00  9.12924E+01 -4.12408E+01  6.77325E+01 -8.37099E+01  4.09001E+01 -9.32754E+01 -2.22273E+01
 -8.46262E+01 -7.84059E+01 -2.35752E+01 -1.01343E+02  2.99005E+01 -8.98012E+01  6.50591E+01 -5.93000E+01
  8.28759E+01 -7.16671E+00  6.22109E+01  3.99765E+01  3.17345E+01  5.63159E+01 -1.40688E+01  5.55202E+01
 -5.10546E+01  2.46120E+01 -6.13189E+01 -1.53125E+01 -3.76624E+01 -5.14389E+01  1.03048E+01 -6.83491E+01
  4.10712E+01 -5.24993E+01  6.03289E+01 -1.97705E+01  5.91252E+01  3.38080E+01  3.01174E+01  6.79545E+01
 -1.34921E+01  6.37468E+01 -5.63223E+01  4.47304E+01 -6.18271E+01  1.03348E+01 -4.98768E+01 -2.15611E+01
 -1.52311E+01 -5.18702E+01  7.97042E+00 -4.71578E+01  3.01721E+01 -1.82251E+01  3.52280E+01  3.07174E+01
  1.53064E+01  5.41700E+01 -3.24699E+01  5.67675E+01 -5.95886E+01  3.23629E+01 -7.12973E+01 -1.93778E+01
 -5.77619E+01 -5.30763E+01 -1.43625E+01 -9.40601E+01  3.15006E+01 -8.06080E+01  8.94398E+01 -5.26285E+01
  1.07181E+02 -9.70972E+00  7.94613E+01  5.09786E+01  4.10490E+01  6.98433E+01  9.95628E+00  7.87623E+01
 -3.09616E+01  5.72061E+01 -5.66878E+01  1.90720E+01 -4.78047E+01 -1.03875E+01 -1.96414E+01 -4.00790E+01
  1.61752E+01 -4.27545E+01  2.85961E+01 -2.51675E+01  5.28542E+01 -6.68769E+00  4.92397E+01  2.50526E+01
  3.13361E+01  3.78346E+01 -4.52006E-01  4.98811E+01 -2.63290E+01  3.12285E+01 -4.44064E+01  1.55774E+01
 -2.58136E+01 -9.23136E+00 -1.78336E+01 -1.02340E+01 -9.85167E+00 -2.37341E+01 -5.80100E+00 -2.07286E+01
 -4.64736E+00 -1.35961E+01  1.41789E-03  2.20324E+00 -8.63341E+00 -7.13540E+00 -2.18313E+01 -1.53105E+01
 -1.07766E+01 -2.16617E+01  5.42155E-01 -3.67625E+01  1.68450E+01 -3.25173E+01  3.28092E+01 -2.27858E+01
  4.63520E+01 -6.81160E+00  3.21216E+01  1.63546E+01  2.37894E+01  3.30726E+01  1.53664E+01  4.68802E+01
 -1.76032E+01  2.75578E+01 -1.93982E+01  2.99926E+01 -2.74783E+01  1.19477E+01 -3.82536E+01 -2.19533E-02
 -1.62862E+01 -2.15446E+01 -1.77760E+00 -2.75604E+01  7.95763E+00 -1.80007E+01  5.72587E-01 -1.19667E+01
  1.90778E+01 -7.21201E+00  1.01014E+01  1.01666E+01 -4.93807E+00  1.70404E+01 -3.34820E+00  1.65264E-01
 -1.65520E+01 -9.90615E+00 -1.87247E+00 -8.75453E+00 -6.51222E+00 -2.55518E+01  8.71889E+00 -1.98780E+01
  3.12091E+01 -7.42070E+00  3.22835E+01 -2.09214E+00  3.55831E+01 -3.59170E-02  1.91254E+01  2.18726E+01
  1.74849E+01  2.86404E+01  1.00095E+01  2.70699E+01  3.61829E+00  3.78553E+01 -1.89501E+01  1.43271E+01
 -1.34721E+01  1.65252E+01 -1.01677E+01  1.21526E+01 -1.45066E+01  1.41800E+01 -6.50569E+00  5.10182E+00
 -1.08779E+01  7.05999E+00 -1.30746E+01 -3.78690E+00 -2.07881E+01 -7.32886E+00 -2.12988E+01 -9.58259E+00
 -1.63699E+01 -1.76370E+01 -1.16765E+01 -2.64984E+01  2.99487E+00 -3.18480E+01  8.71626E+00 -2.46874E+01
  1.54943E+01 -2.00285E+01  1.36644E+01 -1.86387E+00  1.10471E+01 -4.56726E-01  1.74736E+01  1.12843E+01
  9.90967E-02  4.50236E+00 -1.00709E+01  3.26089E+00 -9.71691E+00  2.91504E+00  4.20348E+00 -3.20499E+00
  2.42963E+00 -5.39374E+00  1.22892E+00 -2.15494E+00  4.00213E+00  5.02299E+00 -1.09957E+01  1.26563E+01
 -9.17077E+00 -5.77042E-01 -1.69236E+01 -5.11363E+00 -2.31065E+01  8.41022E-01 -1.21706E+01 -3.26331E+00
 -2.49765E+01 -1.46222E+01 -1.32267E+01 -2.30222E+01  5.99693E+00 -2.26238E+01  1.20109E+01 -3.48103E+01
  1.59167E+01 -2.78397E+01  3.16727E+01 -9.74872E+00  3.61841E+01  9.48338E-01  3.15841E+01  1.16536E+01
  3.28068E+01  1.65928E+00  2.44292E+01  1.15617E+01  1.35305E+01  2.43216E+01  2.48921E+00  1.91671E+01
  4.00490E+00  2.92144E+01 -7.09373E+00  2.27219E+01  2.39144E+00  2.64082E+01 -1.24272E+01  2.64698E+01
 -1.03041E+01  2.79404E+01 -3.96902E+00  2.23427E+01 -1.69107E+01  2.39688E+01 -1.83747E+01  1.02656E+01
 -2.57297E+01  1.03904E+00 -2.41564E+01 -1.49035E+01 -2.40657E+01 -1.21343E+01 -2.07631E+01 -1.76374E+01
 -7.20118E+00 -1.29417E+01  1.28397E+00 -1.62952E+01  1.72351E+01 -2.47117E+01  2.26231E+01 -1.92428E+01
  1.12431E+01  3.00103E+00  1.72815E+01 -3.35130E+00  2.44306E+00  3.99001E+00  3.55702E-01  1.30240E-01
  2.80722E+00 -5.25412E+00 -6.40139E+00  1.03068E+01  6.01835E-01 -3.65940E+00  6.39883E+00  2.84365E+00
  1.77674E+00 -1.37551E-01  1.01441E+01  1.22222E+01 -1.26846E+00  8.46944E+00 -4.32252E+00  5.53257E+00
 -1.17312E+01  1.35703E+01 -2.41976E+01 -1.49740E+00 -1.73413E+01 -4.06684E+00 -2.54697E+01 -1.11930E+01
 -1.45422E+01 -1.80489E+01 -9.44837E+00 -2.73182E+01  1.37648E+01 -2.86724E+01  5.64625E+00 -1.75797E+01
  5.97708E+00 -1.17353E+01  1.75559E+01 -1.06237E+00  1.82915E+01  1.16158E+01  1.33444E+01  5.42300E+00
  8.65122E+00  1.08469E+01  1.46958E+01  1.03889E+01  6.48309E+00  1.02374E+01  3.73400E+00 -2.90048E+00
  6.92101E+00  1.31221E+01  1.16928E+00  1.14419E+01  7.73535E+00  2.23414E+01 -4.42283E+00  1.47381E+01
 -6.26989E+00  2.33864E+01 -1.12658E+01  1.95840E+00 -8.33766E+00  7.63709E-01 -1.28959E+01 -7.85221E+00
 -2.51411E+00 -1.47792E+01 -6.23914E+00 -1.93999E+00 -3.10515E+00 -5.43397E+00  8.37883E+00 -6.40579E+00
  1.02497E+01  6.23427E-01 -7.60243E+00  7.15434E+00 -1.38280E+01  8.92353E+00 -1.19330E+01  6.07022E+00
 -1.71171E+01  2.77362E+00 -1.11145E+01 -4.15542E+00  8.66202E+00 -6.46034E+00 -1.49866E+00  2.54576E-01
  2.00917E+01  1.15406E+00  1.73256E+01 -1.44311E+00  5.36177E+00  6.57863E+00 -9.71315E+00  1.85064E+01
 -5.57139E+00  1.92872E+01 -1.74701E+01  4.25709E+00 -2.01085E+01 -1.52033E+01 -8.71188E+00 -1.04392E+01
 -1.25319E+01 -1.33617E+01 -2.08460E+00 -5.61007E+00  1.66137E+01 -1.49630E+01  1.18383E+00 -2.69164E+00
 -1.86951E+00 -5.53454E+00  9.20226E+00 -2.25855E+00 -6.69466E+00  6.38748E-01 -1.71246E+01 -1.03491E+01
 -5.97003E+00 -7.26064E+00  6.98283E+00 -1.56773E+01  5.31963E+00 -2.52014E+01  2.17737E+01 -9.71515E+00
  2.84983E+01  4.14023E+00  1.40069E+01 -3.47505E+00  5.66423E+00  8.40474E+00  3.23850E+00  1.34148E+01
  7.82263E+00  1.57810E+01 -1.07139E+01  1.52294E+01 -8.20226E+00  5.56088E+00 -7.27728E+00  4.21255E+00
  7.12583E+00 -7.16548E+00 -5.78898E+00  8.89138E+00  5.38474E+00 -2.07807E+00  1.03918E+01  1.64137E-01
 -8.00603E+00  5.45995E+00 -1.86330E+00  1.02046E+01 -2.02680E+01  7.99522E+00 -1.49775E+01  6.19132E+00
 -1.09229E+01 -1.15684E+01 -3.67629E+00 -7.27370E+00 -9.84866E+00 -8.72859E+00  6.70611E+00  3.88113E-01
 -1.17760E+00 -8.84159E-01  3.36981E+00  6.15119E-01 -1.02764E+01  7.06983E+00  5.17236E-02  4.18347E+00
 -7.92671E+00 -9.68751E+00 -4.07845E+00 -2.29007E+00  1.24743E+01 -2.12532E+01  1.73628E+01 -7.46953E+00
  2.09547E+01  3.53674E+00  7.58108E+00  1.40071E+01  1.59563E+01  6.24714E+00  6.30672E+00  1.89585E+01
  2.03454E+00  1.77033E+01 -1.13460E+01  1.58632E+01 -2.63162E+01 -9.56349E-01 -2.80410E+01 -5.08013E+00
 -1.58234E+01 -7.81441E+00 -1.56628E+01 -7.93917E+00  5.95517E+00 -3.97560E+00 -6.81567E+00 -1.37093E+01
 -5.30212E+00 -8.75634E+00  2.29668E+00 -4.93691E+00  4.68861E+00 -3.21682E+00 -5.20238E+00 -1.37879E+01
 -2.18506E+00  1.08588E+00 -7.55651E+00 -3.25394E+00  1.16098E+01 -8.24244E+00 -2.42150E-01 -6.47127E+00
  4.26668E+00 -1.76039E+01  2.47276E+01 -6.33100E+00  2.43412E+01 -3.95552E+00  1.90780E+01  1.53914E+01
  3.28245E+00  1.54217E+01  4.86722E-01  1.11063E+01 -6.22697E+00 -3.91281E+00 -7.51344E+00 -6.38845E-01
 -3.41832E+00  3.77084E+00 -4.28256E+00 -3.16037E+00 -3.36179E+00  1.13740E+00  8.88456E+00  1.56985E+01
 -6.87277E+00  1.79979E+01 -1.13281E+01  1.21862E+00 -1.61214E+01  9.27054E+00 -1.88543E+01 -4.89026E+00
 -1.62432E+01 -9.36409E+00 -2.82851E+00 -5.84812E-01 -2.51123E+00 -1.57689E+01  6.36831E+00 -1.47434E+01
  1.52569E+01 -4.14420E+00  8.88709E+00 -6.72964E+00  1.27888E+01  5.13456E+00  4.13920E+00  9.26223E+00
 -3.41845E+00  2.47003E-01 -8.70583E-01 -2.18715E+00 -2.57121E+00  1.22100E+01  6.12613E-01 -3.67801E+00
  2.67451E+00  7.98314E+00 -5.48576E+00  4.12904E+00 -6.62653E+00  1.27286E+01 -3.57951E+00  1.81242E+01
 -9.65938E+00  1.89711E+00 -1.96941E+01 -9.55958E+00 -2.44716E+01 -1.43284E+01 -5.10937E+00 -8.58861E+00
 -9.33163E+00 -1.16984E+01  7.63202E+00 -2.10098E+01  1.76604E+01 -1.62670E+01  2.61483E+01  2.41895E+00
  8.53037E+00 -2.16531E+00  8.75618E+00  1.01125E+01  1.52140E+00  6.97670E+00 -1.30927E+01  5.15605E+00
 -1.32699E+01 -6.20565E+00  1.05595E+00  3.52129E+00  9.98022E+00 -1.27026E+00  8.90195E-01 -3.46991E+00
  1.82471E+01  8.79555E+00  2.08041E+01  3.27931E+00 -2.14224E+00  2.08147E+01 -5.52237E-01  7.99884E+00
  1.59434E+00  1.14848E+01 -4.94110E+00  8.57471E+00 -1.45940E+01  6.57000E+00 -2.62349E+01 -5.14994E+00
 -8.45671E+00 -1.32729E+00 -9.03564E+00 -1.34493E+01 -9.88630E+00 -3.19085E+00 -6.85877E-01 -1.61424E-01
