 $NMID ID='dataset21', FMTDAT='(8E13.5)'
 TRAMP=1, VOLUME=1 $END
  4.69624E+04  1.03355E+01  4.67335E+04  4.08364E+00  4.65088E+04 -7.35103E+00  4.63021E+04  6.77828E+00
  4.60773E+04 -1.80538E+00  4.58636E+04  8.83621E+00  4.56564E+04  5.96744E+00  4.54340E+04  4.06755E-01
  4.52130E+04 -9.98537E+00  4.50005E+04  2.86037E+00  4.47883E+04 -9.24057E+00  4.45787E+04 -5.99670E+00
  4.43839E+04 -6.82436E+00  4.41644E+04 -1.07685E-01  4.39691E+04 -4.11845E+00  4.37513E+04 -3.10068E-01
  4.35470E+04 -1.00409E+01  4.33360E+04  4.47581E+00  4.31484E+04  9.02417E+00  4.29472E+04 -7.85622E+00
  4.27447E+04  7.87368E+00  4.25334E+04 -7.85156E+00  4.23439E+04  7.83530E+00  4.21435E+04  8.47311E+00
  4.19368E+04 -2.32084E+00  4.17418E+04 -5.90376E+00  4.15355E+04  7.47036E+00  4.13571E+04  8.11443E+00
  4.11611E+04 -7.94442E+00  4.09680E+04  9.01880E+00  4.07723E+04 -1.00683E+00  4.05871E+04 -2.90000E+00
  4.03964E+04  2.75410E+00  4.01925E+04 -3.67835E+00  4.00023E+04 -8.57135E+00  3.98236E+04 -5.46714E+00
  3.96336E+04 -1.66597E+00  3.94422E+04  5.66636E+00  3.92600E+04  3.40390E-01  3.90736E+04  6.82170E+00
  3.88964E+04 -5.46730E-01  3.87143E+04  6.14856E+00  3.85271E+04 -2.35510E+00  3.83516E+04  7.07778E-02
  3.81698E+04  8.16684E+00  3.79916E+04 -7.25113E+00  3.78064E+04  2.84370E+00  3.76390E+04  1.61293E-01
  3.74512E+04  3.20623E+00  3.72776E+04  1.19661E+00  3.71098E+04 -1.04431E+01  3.69192E+04  8.13566E+00
  3.67469E+04 -4.11085E+00  3.65819E+04 -1.03191E+01  3.64106E+04  1.85893E+00  3.62319E+04 -1.40027E+00
  3.60581E+04  6.31226E+00  3.58924E+04 -1.88120E+00  3.57206E+04 -6.66113E+00  3.55508E+04  4.90334E+00
  3.53931E+04  8.06737E+00  3.52364E+04  8.48155E+00  3.50548E+04 -5.54312E+00  3.48970E+04 -6.64079E+00
  3.47289E+04  6.39661E+00  3.45675E+04 -4.89273E+00  3.44018E+04  8.16254E+00  3.42424E+04 -1.00535E+01
  3.40816E+04  9.23077E+00  3.39272E+04  6.22978E+00  3.37675E+04  1.40098E-01  3.36137E+04 -5.30884E-01
  3.34385E+04  7.15146E+00  3.32974E+04  3.14821E-01  3.31377E+04 -9.39752E+00  3.29782E+04 -3.28385E+00
  3.28186E+04  2.00703E+00  3.26630E+04 -5.30098E+00  3.25102E+04  7.79188E+00  3.23656E+04 -3.88223E+00
  3.22051E+04  2.52882E+00  3.20621E+04  6.65750E+00  3.18978E+04 -3.06500E+00  3.17635E+04  1.03419E+01
  3.16008E+04 -1.04492E+01  3.14656E+04  2.89679E+00  3.13063E+04  4.05879E+00  3.11754E+04 -2.30694E+00
  3.10081E+04 -3.98162E+00  3.08821E+04 -5.53245E+00  3.07262E+04  6.82985E+00  3.05779E+04 -3.62631E+00
  3.04451E+04 -5.12659E+00  3.02906E+04 -7.61884E+00  3.01554E+04 -4.58516E+00  3.00226E+04 -2.04596E+00
  2.98817E+04 -6.11422E+00  2.97248E+04  5.95987E+00  2.95989E+04 -9.28030E-01  2.94585E+04  1.89478E+00
  2.93171E+04  9.67887E+00  2.91757E+04  9.03158E+00  2.90439E+04  9.74513E+00  2.89084E+04  9.72963E+00
  2.87756E+04 -1.02754E+01  2.86329E+04  6.93695E+00  2.84919E+04 -6.73293E+00  2.83709E+04  6.53875E+00
  2.82385E+04  7.66834E+00  2.80900E+04  1.51931E+00  2.79727E+04  2.39680E+00  2.78307E+04 -8.13748E+00
  2.77052E+04 -2.59445E+00  2.75771E+04 -1.04424E+01  2.74491E+04  2.26914E+00  2.73163E+04 -5.63696E+00
  2.71845E+04 -4.32753E+00  2.70492E+04 -4.54403E+00  2.69200E+04  7.83043E-01  2.68005E+04  9.04052E+00
  2.66680E+04 -7.05974E+00  2.65493E+04  6.02023E+00  2.64327E+04  5.39323E+00  2.63024E+04 -9.71403E+00
  2.61856E+04 -1.52104E+00  2.60494E+04  4.50758E+00  2.59417E+04 -7.76401E+00  2.58128E+04  6.98202E+00
  2.56940E+04 -5.17683E+00  2.55662E+04  6.48115E+00  2.54525E+04 -4.73277E+00  2.53394E+04  1.25287E+00
  2.52161E+04  5.29022E+00  2.50855E+04  3.58443E+00  2.49686E+04 -9.52354E-01  2.48605E+04 -8.58250E+00
  2.47304E+04  1.24155E+00  2.46249E+04  8.28541E+00  2.45090E+04  7.15895E+00  2.43887E+04  1.46106E+00
  2.42682E+04  9.94491E+00  2.41643E+04  6.05801E+00  2.40419E+04 -4.33825E+00  2.39348E+04 -3.44647E+00
  2.38336E+04  1.70009E+00  2.37150E+04  1.68558E+00  2.36023E+04  3.26081E+00  2.34848E+04 -9.73823E+00
  2.33768E+04 -1.37778E+00  2.32725E+04 -2.67951E+00  2.31524E+04 -3.53662E+00  2.30579E+04  2.64383E+00
  2.29400E+04  2.04588E+00  2.28367E+04  7.00447E+00  2.27317E+04  2.30496E+00  2.26145E+04  3.52085E+00
  2.25167E+04 -2.10703E+00  2.24173E+04  5.65817E+00  2.23100E+04  7.36482E+00  2.21985E+04 -4.51932E+00
  2.20868E+04 -2.07483E+00  2.19796E+04  4.57581E+00  2.18860E+04  5.80923E+00  2.17806E+04  1.14279E+00
  2.16859E+04  1.83364E+00  2.15695E+04  5.77276E+00  2.14740E+04  1.63428E-03  2.13700E+04  1.23533E+00
  2.12775E+04  6.91117E+00  2.11673E+04 -4.15835E+00  2.10831E+04  1.37715E+00  2.09853E+04 -4.88133E+00
  2.08725E+04  1.48395E+00  2.07890E+04 -2.93773E+00  2.06925E+04  8.62260E+00  2.05881E+04 -7.50941E+00
  2.04880E+04 -2.68951E+00  2.03859E+04 -1.66002E+00  2.03040E+04  3.65558E+00  2.02118E+04  5.99517E+00
  2.00981E+04 -1.00791E+00  2.00185E+04 -8.28900E+00  1.99220E+04 -6.51443E+00  1.98207E+04 -1.72294E+00
  1.97278E+04  1.27685E+00  1.96394E+04 -8.21899E+00  1.95460E+04 -3.68843E+00  1.94556E+04 -1.02475E+01
  1.93731E+04  1.31563E+00  1.92811E+04 -9.94064E+00  1.91900E+04  9.02776E-01  1.90818E+04 -6.23189E-01
  1.89986E+04 -4.13331E+00  1.89208E+04 -2.47379E-01  1.88244E+04  3.60293E+00  1.87370E+04 -3.34246E+00
  1.86468E+04  5.48118E-02  1.85588E+04 -9.89960E+00  1.84616E+04  6.18052E-02  1.83912E+04  5.07573E+00
  1.82969E+04 -2.69871E+00  1.82202E+04 -2.92853E+00  1.81165E+04  7.58379E+00  1.80497E+04  4.19217E+00
  1.79582E+04  7.64512E+00  1.78778E+04 -6.85443E+00  1.77821E+04  5.61863E+00  1.77107E+04 -2.45273E+00
  1.76136E+04  5.94487E+00  1.75374E+04 -1.59206E+00  1.74521E+04 -9.87841E-01  1.73678E+04 -6.50714E-01
  1.72818E+04 -1.14962E+00  1.72148E+04 -3.28814E+00  1.71385E+04 -1.48925E+00  1.70401E+04  4.67321E+00
  1.69709E+04  6.13857E+00  1.68835E+04 -7.40907E+00  1.68022E+04 -9.62157E+00  1.67266E+04  3.70223E+00
  1.66476E+04 -1.04289E+01  1.65709E+04 -1.99923E-01  1.64958E+04 -4.10310E+00  1.64117E+04 -9.29540E+00
  1.63387E+04 -3.96235E+00  1.62642E+04 -5.43143E+00  1.61814E+04 -2.83387E+00  1.61021E+04  1.02628E+01
  1.60468E+04 -6.80272E+00  1.59691E+04 -9.66805E+00  1.58819E+04  8.42794E+00  1.58060E+04 -1.05975E+01
  1.57421E+04  1.04244E+01  1.56648E+04 -4.24630E+00  1.55961E+04 -9.76497E+00  1.55122E+04 -2.46526E+00
  1.54339E+04 -7.42866E+00  1.53762E+04  5.73280E-01  1.52946E+04 -6.56918E+00  1.52172E+04 -5.80598E+00
  1.51499E+04  1.76646E+00  1.50799E+04 -7.69637E+00  1.50088E+04 -6.46569E+00  1.49467E+04  4.28748E+00
  1.48613E+04  1.05406E+01  1.47940E+04 -5.88609E+00  1.47360E+04 -6.80109E+00  1.46591E+04  3.86095E+00
  1.45971E+04 -3.42135E-01  1.45147E+04 -8.59133E-01  1.44508E+04 -6.75867E+00  1.43912E+04 -3.93797E+00
  1.43212E+04  5.41426E-01  1.42618E+04  7.05302E+00  1.41930E+04  7.93527E+00  1.41189E+04 -5.23818E+00
  1.40442E+04  1.00552E-01  1.39843E+04 -2.17773E-01  1.39305E+04  1.36540E+00  1.38579E+04 -4.50587E+00
  1.37902E+04 -3.68656E+00  1.37316E+04  2.52141E+00  1.36558E+04  1.06663E+01  1.35913E+04  6.04594E-01
  1.35393E+04 -2.78541E+00  1.34800E+04  7.15567E+00  1.34091E+04  6.54050E+00  1.33393E+04 -7.99012E+00
  1.32910E+04  1.01358E+01  1.32092E+04 -1.29831E+00  1.31514E+04 -5.55668E-01  1.30877E+04 -1.04640E+00
  1.30348E+04  8.88571E+00  1.29726E+04 -7.83980E+00  1.29114E+04 -1.00520E+01  1.28474E+04  4.14051E+00
  1.27831E+04  1.01128E+01  1.27262E+04 -3.89218E+00  1.26771E+04 -6.20288E+00  1.26095E+04 -8.77741E+00
  1.25522E+04  5.78102E+00  1.24952E+04 -3.52759E+00  1.24379E+04  5.20329E+00  1.23758E+04 -3.48345E+00
  1.23183E+04  8.59252E+00  1.22501E+04  5.54632E+00  1.22069E+04  6.33577E+00  1.21432E+04  2.07196E+00
  1.20885E+04  1.01158E+01  1.20207E+04  3.73800E+00  1.19798E+04 -5.46286E+00  1.19258E+04 -5.17844E+00
  1.18548E+04  1.26012E+00  1.18123E+04 -1.93643E-02  1.17393E+04 -7.48650E+00  1.17013E+04  9.52634E+00
  1.16384E+04 -1.54916E-01  1.15891E+04 -6.73683E+00  1.15297E+04 -7.01543E+00  1.14757E+04  3.02832E+00
  1.14167E+04 -9.84436E+00  1.13631E+04 -8.42441E+00  1.13205E+04 -1.47941E+00  1.12688E+04 -5.75715E+00
  1.12121E+04 -9.49108E+00  1.11656E+04  1.00736E+01  1.11060E+04 -6.19128E+00  1.10483E+04 -1.00484E+01
  1.09969E+04  6.90451E-01  1.09532E+04  2.38798E+00  1.08974E+04 -1.50570E+00  1.08361E+04  7.83011E+00
  1.07984E+04  3.13848E+00  1.07464E+04 -2.11224E+00  1.06919E+04 -5.50763E+00  1.06482E+04 -8.66604E+00
  1.05974E+04 -9.46438E+00  1.05367E+04 -1.02723E+01  1.05000E+04 -2.05575E+00  1.04355E+04 -9.54149E+00
  1.03902E+04  4.93983E+00  1.03517E+04  1.05705E+01  1.03048E+04 -8.79531E-01  1.02515E+04 -9.74127E-01
  1.02021E+04 -1.12453E+00  1.01563E+04  5.24401E+00  1.01074E+04  2.07339E+00  1.00522E+04  7.98293E+00
  1.00126E+04  1.06193E+01  9.97016E+03  7.56116E+00  9.90878E+03 -3.91643E+00  9.86998E+03 -6.70039E+00
  9.81683E+03 -2.85073E+00  9.76672E+03 -2.93783E-01  9.74075E+03 -8.30891E+00  9.68422E+03  7.60070E+00
  9.64393E+03 -6.95428E+00  9.59542E+03  6.85728E+00  9.55768E+03 -9.98025E-01  9.50032E+03 -9.70596E-01
  9.46680E+03 -9.17322E+00  9.41015E+03 -7.31811E+00  9.38179E+03 -1.10687E+00  9.32880E+03  7.63440E+00
  9.27375E+03  6.45377E+00  9.23847E+03 -2.84629E+00  9.19413E+03 -1.69629E+00  9.15605E+03  7.51462E-01
  9.10300E+03  7.29555E+00  9.06679E+03 -1.41714E+00  9.02719E+03  3.97985E+00  8.98024E+03 -7.10940E+00
  8.94976E+03 -3.27685E+00  8.89168E+03  2.49677E+00  8.86209E+03  9.48312E+00  8.81995E+03  8.40644E+00
  8.76651E+03  7.50085E+00  8.73833E+03 -2.23890E+00  8.70050E+03 -3.01919E+00  8.64726E+03  4.52302E+00
  8.59988E+03  1.00949E+01  8.56049E+03 -1.03327E+01  8.52757E+03  6.04251E+00  8.48787E+03  5.04754E+00
  8.45216E+03 -3.52352E-01  8.40562E+03  6.52077E+00  8.36270E+03 -8.65660E+00  8.32137E+03 -6.04800E+00
  8.29775E+03 -4.94386E+00  8.24160E+03  7.53350E+00  8.21044E+03  2.33060E+00  8.16575E+03 -7.40251E+00
