 $NMID ID='dataset5', FMTDAT='(8E13.5)'
 TRAMP=1, VOLUME=1 $END
  2.63455E+02  1.08956E+02  4.69050E+02  2.14143E+02  3.23301E+02  3.62014E+02  1.31669E+02  4.22979E+02
 -5.39122E+01  3.95508E+02 -1.72916E+02  2.77876E+02 -2.28558E+02  1.45656E+02 -1.98425E+02  2.39521E+01
 -1.20215E+02 -5.11759E+01 -4.25831E+01 -7.26255E+01  2.46373E+01 -4.28949E+01  4.63202E+01  2.36789E+00
  4.88258E+01  5.53204E+01  1.02861E+01  8.17163E+01 -2.18284E+01  8.97712E+01 -5.13978E+01  8.27691E+01
 -7.75818E+01  5.69468E+01 -8.37207E+01  3.47370E+01 -9.49114E+01  8.97495E+00 -8.45994E+01 -2.15824E+01
 -7.90578E+01 -4.45922E+01 -6.59476E+01 -6.16272E+01 -3.74433E+01 -6.99564E+01 -5.25052E+00 -7.74076E+01
  2.13699E+01 -6.35842E+01  4.48777E+01 -4.53441E+01  5.53272E+01 -5.37232E+00  3.76922E+01  1.98885E+01
  1.45411E+01  4.17224E+01 -1.81951E+01  4.25252E+01 -5.06587E+01  1.58854E+01 -5.85792E+01 -1.45369E+01
 -5.71155E+01 -4.26507E+01 -3.11878E+01 -8.10304E+01  2.87577E+00 -8.37886E+01  4.14752E+01 -8.04901E+01
  6.89813E+01 -5.65974E+01  7.63259E+01 -2.74110E+01  8.48848E+01  1.05006E+00  8.09173E+01  2.03949E+01
  6.21959E+01  3.89841E+01  5.02496E+01  5.01431E+01  2.26431E+01  5.97166E+01  2.93838E+00  5.77993E+01
 -1.31589E+01  4.90204E+01 -2.19411E+01  2.96314E+01 -2.32438E+01  1.49522E+01 -2.74376E+01  4.65948E-01
 -1.20970E+01 -2.97774E+00  4.95358E+00 -4.10597E+00  2.48830E+01  3.87278E+00  1.79161E+01  3.11018E+01
  4.57178E+00  4.74035E+01 -1.81706E+01  5.50049E+01 -4.65404E+01  3.46914E+01 -6.35709E+01  9.72243E+00
 -6.36966E+01 -2.75736E+01 -3.93975E+01 -5.12507E+01 -6.87955E+00 -7.21259E+01  2.77559E+01 -5.95410E+01
  6.31044E+01 -4.37332E+01  7.45032E+01 -3.25322E-01  6.47229E+01  3.60696E+01  3.75794E+01  5.64338E+01
  8.19236E+00  7.69535E+01 -2.71578E+01  6.52530E+01 -5.10880E+01  4.69759E+01 -5.78147E+01  1.44192E+01
 -5.80403E+01  1.54223E+00 -4.77694E+01 -1.62133E+01 -2.95541E+01 -2.98990E+01 -2.20647E+01 -3.56138E+01
 -1.08223E+01 -3.38024E+01  8.04261E+00 -2.58403E+01  6.21379E+00 -1.88170E+01  1.19588E+01 -9.84080E+00
  1.99436E+01  4.10998E-01  1.38872E+01  9.03826E+00 -2.77287E+00  2.13884E+01 -2.22338E+01  1.94224E+01
 -2.68392E+01  5.49889E+00 -3.21813E+01 -1.87659E+01 -3.05638E+01 -3.44856E+01 -1.02276E+01 -4.50592E+01
  2.16025E+01 -4.50530E+01  4.15955E+01 -4.14625E+01  5.20741E+01 -1.91591E+01  5.50899E+01  1.34581E+01
  4.18806E+01  3.42048E+01  5.08305E+00  4.94659E+01 -1.60964E+01  3.89358E+01 -3.45114E+01  1.94082E+01
 -4.24821E+01  1.77825E+00 -2.99151E+01 -2.86567E+01 -1.18854E+01 -4.59613E+01  1.73187E+01 -4.26055E+01
  3.29354E+01 -3.26570E+01  4.93706E+01 -1.81304E+01  5.97919E+01  1.51928E+01  4.12636E+01  3.39756E+01
  2.55774E+01  4.79726E+01  9.23848E+00  5.11842E+01 -8.83756E+00  6.06969E+01 -3.02671E+01  4.18256E+01
 -4.49764E+01  3.26928E+01 -4.64894E+01  2.15573E+01 -5.38004E+01 -7.36252E+00 -3.81093E+01 -1.96367E+01
 -3.22251E+01 -3.84827E+01 -6.33877E+00 -3.91037E+01  7.62716E+00 -3.82653E+01  2.41381E+01 -2.52371E+01
  2.53409E+01 -7.34670E+00  1.73094E+01  5.02595E+00  1.44000E+01  1.41367E+01 -3.06173E+00  1.56805E+01
 -1.65736E+01  1.11879E+01 -2.23458E+01 -2.11992E+00 -1.81061E+01 -2.43752E+01 -1.68177E+00 -2.74835E+01
  1.20113E+01 -2.77203E+01  2.95797E+01 -1.73043E+01  3.94282E+01 -1.03378E+01  3.90329E+01  8.78791E+00
  2.50031E+01  2.56372E+01  7.05661E+00  3.31150E+01 -6.17820E+00  3.75867E+01 -2.91233E+01  2.18468E+01
 -3.23178E+01  1.02257E+01 -3.75310E+01  4.55680E-01 -3.01868E+01 -1.65990E+01 -2.80269E+01 -2.78217E+01
 -6.35607E+00 -3.56556E+01  2.80292E+00 -4.12112E+01  1.79307E+01 -2.92257E+01  2.79578E+01 -2.80909E+01
  3.57034E+01 -1.10214E+01  3.29341E+01 -3.36906E+00  3.50420E+01  1.42886E+01  2.40452E+01  2.32309E+01
  1.29548E+01  3.39638E+01 -3.98981E+00  2.82932E+01 -9.09692E+00  2.36854E+01 -1.48778E+01  1.31699E+01
 -1.29738E+01  6.06022E+00 -7.98027E+00 -5.43837E+00 -5.51530E-01 -7.79011E+00  2.05278E+00 -1.98527E-01
  1.18730E+00  1.24318E+01  3.93339E+00  1.65489E+01 -1.28118E+01  1.54655E+01 -2.23910E+01  1.15466E+01
 -3.28221E+01  6.65141E+00 -3.64346E+01 -1.83661E+00 -2.60086E+01 -2.40729E+01 -1.86023E+01 -2.97781E+01
 -8.68571E+00 -3.75099E+01  1.19620E+01 -3.69372E+01  1.80201E+01 -2.17934E+01  3.29891E+01 -1.44133E+01
  3.82716E+01  3.63233E-01  2.17598E+01  1.14935E+01  2.13568E+01  3.32946E+01  2.57966E+00  3.36941E+01
 -9.93289E+00  3.56917E+01 -2.51355E+01  2.48432E+01 -3.83335E+01  5.42235E+00 -4.32390E+01 -4.35125E+00
 -3.53015E+01 -2.96148E+01 -2.43175E+01 -4.19761E+01 -6.25492E+00 -3.83785E+01  4.97600E+00 -4.26501E+01
  2.25723E+01 -3.47487E+01  2.74842E+01 -1.68756E+01  2.96434E+01 -1.36706E+01  2.08258E+01 -6.39358E+00
  1.44380E+01  1.88610E+00  1.93262E+01  9.27734E-01  1.59075E+01  1.59407E+00  1.40988E+01 -2.16347E+00
  2.10665E+01 -3.89903E+00  2.44301E+01  3.29235E+00  3.05456E+01  1.18172E+01  2.28708E+01  1.39632E+01
  2.25226E+01  2.04577E+01  1.84312E+01  2.92355E+01  5.24134E+00  3.01038E+01 -1.19271E+01  4.16955E+01
 -2.08181E+01  3.31284E+01 -2.77116E+01  2.40461E+01 -3.06208E+01  1.65612E+01 -3.09969E+01  3.43491E+00
 -2.85520E+01 -1.21946E+01 -1.70964E+01 -2.00015E+01 -5.55663E+00 -2.91097E+01 -4.24860E+00 -2.65656E+01
  1.21851E+01 -1.31792E+01  1.01731E+01 -9.54758E+00  1.49578E+01 -4.06005E+00  1.49052E+01  3.32210E+00
  2.82834E+00  1.69314E+01 -3.68724E+00  9.40579E+00 -7.27488E+00  1.00712E+01 -1.16913E+01  4.27495E+00
 -6.18410E+00 -1.34070E+01 -1.09544E+01 -8.80077E+00  2.57804E+00 -8.67789E+00  6.49870E+00 -1.21349E+01
  1.63460E+01  8.91556E-01  5.93297E+00  2.06038E+00  6.83120E-01  9.34146E+00  1.57434E+00  1.09991E+01
 -1.04517E+01  4.83865E+00 -1.36614E+01  7.26193E+00 -1.39641E+01 -5.95728E+00 -1.26857E+01 -7.96004E+00
 -1.32601E+01 -2.05696E+01 -2.41568E+00 -1.97360E+01  5.84964E+00 -2.45675E+01  2.09770E+01 -2.04524E+01
  2.68662E+01 -9.59183E+00  3.08632E+01  8.44163E-01  3.55256E+01  5.55519E+00  2.69004E+01  2.00138E+01
  2.23086E+01  2.09241E+01  1.11036E+01  2.25271E+01 -4.59436E+00  2.36685E+01 -1.49748E+01  1.71987E+01
 -1.54879E+01  4.79735E+00 -1.52961E+01  3.64660E+00 -1.17880E+01 -3.56512E+00 -1.11570E+01 -8.18880E+00
 -1.24528E+00 -1.39607E+01  8.89173E+00 -7.11086E+00  1.42155E+01 -2.64952E+00  9.97070E+00  4.43943E+00
  5.96016E+00  9.00565E+00 -7.14482E-01  8.15874E+00 -5.87449E+00  1.24708E+01 -2.48640E+00  1.07606E+01
 -7.81118E-01  1.07800E+01 -4.31110E+00  3.59585E+00 -3.21545E+00  2.07381E+00  2.78811E+00 -3.58238E+00
  3.91663E+00  1.00168E+00  4.49950E+00 -1.55247E+00 -1.28657E+00  3.51370E+00 -1.25734E+00  5.50586E+00
 -1.37356E+01  1.46882E+01 -1.76263E+01  1.24987E+01 -2.28055E+01 -4.94155E-01 -1.81737E+01 -8.49151E-01
 -1.99539E+01 -9.14982E+00 -1.80041E+01 -1.66686E+01 -1.12503E+01 -1.83727E+01  3.82982E+00 -2.98364E+01
  5.06541E+00 -2.13976E+01  1.93035E+01 -1.84367E+01  2.02813E+01 -1.52399E+01  2.01817E+01  2.62255E+00
  1.86063E+01  3.30707E+00  5.30812E+00  6.72165E+00  6.63318E+00  8.60352E+00 -7.78354E+00  2.25462E+00
 -4.54763E+00  5.45861E+00 -8.79990E+00 -3.33282E-01 -1.07312E+00 -1.45509E+01  7.98463E+00 -1.30640E+01
  5.99294E+00 -1.03121E+01  7.94624E+00 -6.76853E+00  9.64720E+00 -1.83487E+00  1.57662E+01  9.85511E+00
  5.87802E+00  1.35462E+01  4.31012E-01  1.39147E+01 -5.34988E+00  7.56756E+00 -1.28045E+01  1.39924E+01
 -5.92668E+00  9.29922E+00 -7.15470E+00  2.22740E+00 -9.25997E+00 -8.59695E+00 -6.30896E+00 -4.29720E+00
  6.55301E+00 -4.95649E+00  1.40100E+01 -1.98780E-01  9.68950E+00  5.06362E+00  8.52517E+00  1.00228E+01
  2.29211E+00  1.71893E+01 -3.26760E+00  1.55321E+01 -8.69670E-01  2.05514E+01 -8.62616E+00  1.85419E+01
 -2.06567E+01  7.86453E-01 -1.42994E+01 -4.20648E+00 -1.35015E+01 -7.22241E+00 -9.75829E+00 -1.39781E+01
  2.95743E-01 -1.79569E+01  8.17105E+00 -1.80707E+01  1.37211E+01 -1.48916E+01  1.19522E+01 -1.13605E+01
  1.09743E+01  5.74827E-01  1.54888E+01  6.01942E+00  5.17055E+00  6.93990E+00  8.94766E+00  4.83039E+00
 -3.12984E+00  1.60158E+01 -2.59239E+00  3.59599E+00 -1.56160E+00  2.76297E+00 -4.70016E+00  6.04752E+00
 -1.13605E+01  3.23731E+00 -9.78058E+00 -7.88032E+00 -3.44543E+00 -2.85309E+00 -3.11311E+00  2.90622E+00
 -4.83604E+00  1.52803E+00  3.99135E+00  1.54719E+00 -7.59488E-01  8.16838E+00 -7.72471E+00  2.51962E+00
 -1.06182E+01 -1.20953E-02 -1.25425E+01 -3.34637E+00 -1.04580E+01 -3.91027E+00 -3.29125E+00 -8.58979E+00
  7.95570E+00 -1.02879E+01  7.54372E+00 -1.33470E+01  1.25134E+01 -8.41007E+00  2.11512E+01 -9.31232E+00
  1.88872E+01  3.93323E+00  7.27812E+00  4.76764E+00  1.06646E+01  1.26528E+01  3.10407E+00  1.13854E+01
  4.33163E+00  1.56741E+01 -2.65795E+00  1.43738E+01 -9.87763E+00  1.37235E-01 -4.47177E+00  5.44244E+00
 -9.62823E+00 -1.36130E+00 -7.08009E+00 -6.49533E+00 -3.26119E+00 -1.26900E-02 -3.15934E-01 -1.52010E-01
 -2.08413E+00  6.74243E+00  3.59535E+00  5.50814E+00 -8.11016E+00 -2.69361E+00 -8.38776E+00  2.50365E+00
 -4.29047E+00 -3.81235E+00 -1.25708E+01 -3.79338E+00 -5.63367E+00  3.69713E-01 -8.04257E-01 -1.11055E+01
 -3.55415E+00 -3.68655E+00 -9.82288E-01 -9.29723E+00  6.48746E+00 -1.37306E+00  9.34959E+00 -1.93984E+00
  6.75309E-01 -7.72963E-01  1.14082E+00 -1.37250E+00 -2.22055E+00  6.31317E+00 -9.83705E+00  8.04757E+00
 -1.02373E+01 -3.69862E+00 -1.43229E+01 -3.85430E+00 -8.21740E+00 -1.18228E+01 -7.18580E+00 -6.70461E+00
  1.96910E+00 -1.84421E+01  7.23724E+00 -2.00962E+01  1.34044E+01 -1.33754E+01  7.98873E+00 -1.42290E+01
  1.63375E+01 -6.56086E+00  1.42097E+01  4.99976E+00  1.83251E+01  5.24407E+00  7.39510E+00  1.03142E+01
  8.73151E-01  8.13574E+00  1.37334E+00  6.80245E+00  2.19907E+00  1.41285E+01 -6.64032E+00  1.19002E+01
  4.77939E-03  3.26727E+00 -6.40682E+00  1.93914E+00 -1.05288E+00  6.38662E-01 -1.56717E+00  6.67825E+00
 -2.02765E+00  5.24886E+00 -3.46939E+00 -1.16700E+00 -3.43344E+00  4.07915E+00 -9.12613E+00  8.66591E-01
 -5.85993E+00  6.28998E+00 -7.03906E+00  2.46938E+00 -8.51223E+00 -1.93787E+00 -4.41716E+00 -1.08117E+01
