 $NMID ID='dataset24', FMTDAT='(8E13.5)'
 TRAMP=1, VOLUME=1 $END
  2.64739E+02 -1.15408E+03  5.97547E+02 -1.04302E+03  5.68397E+02 -8.70561E+02  4.88692E+02 -7.76093E+02
  4.20553E+02 -7.76873E+02  4.13801E+02 -8.27855E+02  4.58758E+02 -8.96910E+02  5.85959E+02 -9.47923E+02
  7.43862E+02 -9.37607E+02  9.08163E+02 -8.64559E+02  1.03985E+03 -7.44985E+02  1.12219E+03 -5.96946E+02
  1.16964E+03 -4.31511E+02  1.17895E+03 -2.93651E+02  1.15840E+03 -1.71069E+02  1.14906E+03 -6.54898E+01
  1.12818E+03  2.09941E+01  1.11052E+03  1.12974E+02  1.08760E+03  2.14398E+02  1.05957E+03  2.99004E+02
  1.03049E+03  3.89145E+02  9.95164E+02  4.72535E+02  9.55649E+02  5.56203E+02  9.23189E+02  6.40553E+02
  8.71155E+02  7.28773E+02  8.02456E+02  8.28195E+02  7.24449E+02  9.23379E+02  6.08794E+02  1.00630E+03
  4.82302E+02  1.07086E+03  3.48115E+02  1.10032E+03  2.16251E+02  1.10541E+03  9.69031E+01  1.08935E+03
 -2.69193E+00  1.06282E+03 -8.89167E+01  1.02367E+03 -1.54638E+02  1.00052E+03 -2.28649E+02  9.80025E+02
 -3.03954E+02  9.60445E+02 -3.83339E+02  9.39117E+02 -4.66520E+02  9.04592E+02 -5.54528E+02  8.67156E+02
 -6.35135E+02  8.11030E+02 -7.24207E+02  7.46069E+02 -7.96512E+02  6.75347E+02 -8.63864E+02  5.88097E+02
 -9.24370E+02  4.85463E+02 -9.64446E+02  3.80650E+02 -9.86642E+02  2.66536E+02 -9.95073E+02  1.57986E+02
 -9.76918E+02  5.16236E+01 -9.51946E+02 -3.36263E+01 -9.25421E+02 -1.13097E+02 -9.01486E+02 -1.83109E+02
 -8.83229E+02 -2.51991E+02 -8.67036E+02 -3.28672E+02 -8.42518E+02 -4.13805E+02 -8.07380E+02 -5.14177E+02
 -7.37805E+02 -6.10744E+02 -6.59395E+02 -6.87890E+02 -5.53457E+02 -7.57246E+02 -4.48748E+02 -7.95729E+02
 -3.41821E+02 -8.05496E+02 -2.53339E+02 -7.99073E+02 -1.82235E+02 -7.75966E+02 -1.20728E+02 -7.70715E+02
 -6.96048E+01 -7.65311E+02 -1.83327E+01 -7.60057E+02  4.48346E+01 -7.69260E+02  1.09227E+02 -7.64630E+02
  1.84264E+02 -7.53710E+02  2.58661E+02 -7.39402E+02  3.39479E+02 -6.97498E+02  4.02154E+02 -6.54255E+02
  4.71518E+02 -6.06186E+02  5.19928E+02 -5.53040E+02  5.75947E+02 -4.86117E+02  6.08691E+02 -4.10414E+02
  6.37001E+02 -3.44398E+02  6.51668E+02 -2.61331E+02  6.61928E+02 -1.96194E+02  6.52857E+02 -1.30682E+02
  6.43387E+02 -7.41266E+01  6.32309E+02 -1.99363E+01  6.27902E+02  2.32003E+01  6.22578E+02  7.63753E+01
  6.22861E+02  1.28263E+02  6.14238E+02  1.99891E+02  5.99947E+02  2.65338E+02  5.58373E+02  3.36458E+02
  5.02957E+02  4.00273E+02  4.32827E+02  4.50384E+02  3.61300E+02  4.77099E+02  3.00180E+02  4.90858E+02
  2.43060E+02  4.82776E+02  2.02866E+02  4.83234E+02  1.60684E+02  4.79274E+02  1.29464E+02  4.80262E+02
  1.02558E+02  4.95835E+02  6.32813E+01  5.02572E+02  1.69449E+01  5.18338E+02 -3.97646E+01  5.17798E+02
 -9.52690E+01  5.20327E+02 -1.55148E+02  5.02751E+02 -2.14155E+02  4.77010E+02 -2.62181E+02  4.34893E+02
 -3.12928E+02  3.90919E+02 -3.41144E+02  3.49899E+02 -3.70819E+02  2.94452E+02 -3.80987E+02  2.40410E+02
 -3.84508E+02  1.93214E+02 -3.89937E+02  1.45718E+02 -3.77037E+02  1.06384E+02 -3.68039E+02  7.49589E+01
 -3.73174E+02  5.08287E+01 -3.68903E+02  2.69438E+01 -3.77485E+02 -3.35922E+00 -3.74845E+02 -3.35000E+01
 -3.68525E+02 -8.11221E+01 -3.55815E+02 -1.19457E+02 -3.30714E+02 -1.65997E+02 -2.97652E+02 -1.94205E+02
 -2.65489E+02 -2.22401E+02 -2.28706E+02 -2.34250E+02 -1.88254E+02 -2.42336E+02 -1.62157E+02 -2.42803E+02
 -1.47879E+02 -2.36553E+02 -1.29780E+02 -2.41005E+02 -1.10621E+02 -2.47943E+02 -9.84670E+01 -2.59545E+02
 -7.95041E+01 -2.65722E+02 -5.09918E+01 -2.83517E+02 -2.20126E+01 -2.88422E+02  1.56906E+01 -2.88320E+02
  5.03659E+01 -2.82992E+02  7.81165E+01 -2.71201E+02  1.15827E+02 -2.59429E+02  1.38127E+02 -2.39645E+02
  1.60708E+02 -2.11746E+02  1.85844E+02 -1.73855E+02  1.91924E+02 -1.49224E+02  1.92804E+02 -1.13141E+02
  1.83874E+02 -8.95776E+01  1.89257E+02 -7.88549E+01  1.78256E+02 -5.87307E+01  1.78975E+02 -4.94822E+01
  1.84698E+02 -3.32090E+01  1.83306E+02 -2.30338E+01  1.89866E+02 -5.79679E+00  1.89448E+02  1.72146E+01
  1.78282E+02  4.31553E+01  1.71686E+02  6.46343E+01  1.44696E+02  7.58257E+01  1.28640E+02  9.21234E+01
  1.09892E+02  9.82636E+01  9.64593E+01  9.30462E+01  8.83382E+01  9.60683E+01  7.88975E+01  8.48130E+01
  7.90385E+01  9.05946E+01  7.83667E+01  9.88764E+01  7.44930E+01  1.06234E+02  6.36790E+01  1.18630E+02
  5.78675E+01  1.26997E+02  3.75952E+01  1.41731E+02  1.74593E+01  1.51498E+02 -1.33817E+01  1.50805E+02
 -2.81792E+01  1.46082E+02 -4.91669E+01  1.23196E+02 -7.45985E+01  1.09791E+02 -7.97085E+01  8.77803E+01
 -8.50749E+01  7.06026E+01 -7.71314E+01  4.97033E+01 -7.37184E+01  4.33539E+01 -6.94739E+01  3.69809E+01
 -5.80687E+01  3.51618E+01 -5.80937E+01  2.78395E+01 -5.91424E+01  3.54473E+01 -6.36906E+01  3.10755E+01
 -6.68641E+01  1.85586E+01 -7.27918E+01  1.87358E+01 -7.46067E+01 -6.70912E-02 -6.93249E+01 -5.26770E+00
 -5.78865E+01 -1.52951E+01 -5.48835E+01 -1.77970E+01 -4.90245E+01 -1.60821E+01 -3.79464E+01 -1.80946E+01
 -3.36775E+01 -1.10649E+01 -4.38746E+01 -1.34542E+01 -4.70076E+01 -8.01174E+00 -5.10821E+01 -1.02722E+01
 -5.27696E+01 -2.25279E+01 -4.98540E+01 -2.98056E+01 -5.07440E+01 -4.24371E+01 -5.06859E+01 -4.89040E+01
 -4.01759E+01 -6.19469E+01 -3.10089E+01 -6.40150E+01 -1.51886E+01 -7.08874E+01  1.37465E+00 -7.08158E+01
  1.37343E+01 -5.65494E+01  2.10736E+01 -4.59624E+01  2.21402E+01 -4.32978E+01  2.36414E+01 -3.14275E+01
  2.68420E+01 -2.96473E+01  1.25608E+01 -1.97509E+01  1.67734E+01 -2.24877E+01  1.08182E+01 -2.29814E+01
  1.79050E+01 -2.45399E+01  1.87536E+01 -3.37296E+01  2.57311E+01 -2.12079E+01  4.04428E+01 -1.56232E+01
  3.80210E+01 -8.66112E+00  3.27216E+01 -2.56157E+00  3.00659E+01  9.09741E-01  2.73463E+01  1.12993E+01
  1.68603E+01  1.26987E+01  9.25342E+00  5.55202E+00  5.04626E+00  8.20080E+00  3.54650E+00 -1.50084E+00
  1.21568E+01 -1.06451E+01  1.82300E+01 -7.65559E+00  1.80786E+01 -6.54019E+00  3.40792E+01 -2.71033E+00
  3.70146E+01  5.91822E+00  4.14797E+01  8.12304E+00  3.54019E+01  2.25075E+01  2.86101E+01  3.44696E+01
  2.13274E+01  3.88152E+01  1.05528E+01  3.87210E+01 -7.08300E+00  4.08904E+01 -1.00371E+01  3.68071E+01
 -1.22252E+01  2.80982E+01 -1.33432E+01  1.43561E+01 -1.81410E+01  4.44907E+00 -9.08111E+00 -2.07414E+00
 -1.99897E+00  6.31860E+00 -4.10471E+00  7.99593E+00 -3.45961E+00  9.71811E+00 -1.12097E+00  1.35989E+01
 -5.31179E+00  1.35883E+01 -1.04319E+01  1.86404E+01 -5.27404E+00  1.57227E+01 -1.18690E+01  9.08451E+00
 -1.26478E+01  5.56785E+00 -1.06941E+01  3.84350E+00 -1.44087E+01  1.00534E+00 -1.53003E+01 -4.51051E+00
 -6.42593E+00  2.25211E+00 -1.08979E+01  5.66438E-01 -1.24513E+01  3.66790E+00 -7.26844E+00  9.66738E+00
 -9.47301E+00  1.15678E+01 -1.31505E+01  8.74552E+00 -2.17281E+01  4.54826E+00 -2.93729E+01 -3.84750E+00
 -2.23843E+01 -1.22178E+01 -1.97617E+01 -1.83350E+01 -6.61884E+00 -2.14078E+01 -2.67889E+00 -2.43231E+01
  1.36455E+00 -2.95887E+01  1.03585E+01 -1.44281E+01  1.23057E+01 -1.25568E+01  1.77326E+01 -9.12145E+00
  1.66128E+01 -2.55593E+00  4.87158E+00  5.25843E+00  4.54530E+00  3.28283E+00  6.19052E-01 -3.19140E+00
 -6.82609E+00 -3.47895E+00  2.44236E+00 -7.77496E+00 -2.93280E+00 -1.18901E+01  2.49146E+00 -5.60527E+00
  7.32809E+00 -8.60324E+00  1.82056E+01 -6.65314E+00  9.45685E+00  4.02518E+00  9.57076E+00  1.92055E+00
  1.13462E+01  6.77791E+00  3.18826E+00  9.51039E+00  3.29515E+00  1.36013E+01 -1.11813E+00  1.01443E+01
 -1.20327E+01 -1.56503E+00 -3.44060E+00 -2.94661E+00 -8.47334E+00 -1.14617E+00  2.54327E+00 -1.01853E+01
  1.69437E+00 -9.23979E+00  1.09996E+01 -3.21653E+00  1.36220E+01  5.74123E+00  5.75250E+00  4.04809E+00
  5.99626E+00  7.88674E+00 -1.09059E+00  1.70702E+01 -3.24668E+00  1.67126E+01 -1.69929E+01  1.20055E+01
 -1.29895E+01  4.27636E+00 -1.54866E+01 -1.61956E+00 -1.28912E+01 -6.63671E+00 -1.03988E+01 -1.39510E+01
 -4.01460E+00 -1.78385E+01  2.36967E+00 -2.00818E+01  5.47492E+00 -1.51704E+01  8.72551E+00 -2.30029E+00
  1.57445E+01  3.10866E-01  6.30878E+00  4.34544E+00  1.05788E+01  1.30346E+01 -2.16114E+00  1.53597E+01
 -2.13186E+00  8.69876E+00 -1.37064E+00  1.29341E+01 -1.25882E+01  3.01427E+00 -2.34599E+00  2.02716E+00
 -1.10409E+01 -6.47033E+00 -2.21985E+00 -3.70830E+00  1.94223E+00 -6.98618E+00 -1.67699E+00  2.32648E-01
  3.22432E+00  2.93289E-02 -5.03217E+00 -2.94848E+00  9.65653E-02 -2.17721E+00 -3.73806E+00 -1.32148E+00
 -3.91198E+00 -6.14935E+00 -7.53054E+00 -8.02246E+00 -1.77435E+00 -7.40826E+00 -1.14290E+00 -7.40209E+00
 -3.31537E+00 -1.18245E+01  6.36474E+00 -1.56172E+01  1.01463E+01 -1.08070E+01  1.41352E+01 -8.21217E+00
  1.22723E+01  1.96319E+00  1.05630E+01  8.97120E+00  6.13595E+00  1.49082E+01 -2.04025E-01  1.42508E+01
 -4.13777E+00  1.68932E+01 -1.53149E+00  1.41255E+01 -9.98415E+00  1.23164E+00 -5.51279E+00  2.61440E+00
 -5.50704E+00 -3.19164E+00 -8.24933E+00 -2.77042E+00 -4.70780E+00 -2.28009E+00  2.06553E+00 -4.56201E+00
  5.74008E-01  3.35248E+00  2.74363E+00  6.42859E+00  2.36686E+00  1.84368E+00 -2.96139E-01  2.46478E+00
 -3.21798E+00  5.03950E+00 -5.22302E+00 -1.23094E+00 -5.23378E+00 -4.65642E+00 -2.64920E+00 -8.08707E+00
 -4.95606E+00 -1.04413E+01  1.63104E+00 -3.42899E+00  1.70642E-01 -3.09207E+00  1.03541E+00 -7.25151E+00
  5.33117E+00  4.48719E+00 -1.07072E+00 -7.86180E-01  2.18407E+00  3.22821E+00 -5.70096E+00  2.62161E+00
 -3.41602E+00  1.76311E+00 -8.77979E+00  1.38501E-02 -1.26828E+01 -8.42320E+00 -6.70502E+00 -1.01788E+01
 -2.24484E+00 -1.23148E+01  7.51979E-01 -1.52484E+01  1.36932E+01 -1.69515E+01  1.18477E+01 -1.15481E+01
  1.04017E+01 -6.31292E+00  1.21192E+01  5.97717E+00  1.08445E+01  3.15473E+00  6.85322E+00  9.66031E+00
  3.74359E-01  7.11790E+00  2.38941E+00  1.12067E+01 -2.04827E+00  1.23737E+01 -7.47016E+00  1.04692E+01
 -5.29674E+00 -1.72095E-01 -3.79789E+00  1.10277E+00 -7.96433E-01  9.59615E-01 -2.65576E+00  1.52362E+00
  2.03081E+00  6.63231E+00 -6.94175E-01  9.96326E+00 -5.59825E+00  5.30525E+00 -1.10477E+01  1.08008E+01
 -1.02366E+01 -1.62868E+00 -9.52873E+00 -1.72179E+00 -1.40637E+01 -4.48770E+00 -6.96918E+00 -4.85886E+00
