 $NMID ID='dataset9', FMTDAT='(8E13.5)'
 TRAMP=1, VOLUME=1 $END
  2.69221E+02  1.10746E+02  4.85397E+02  2.17612E+02  3.32514E+02  3.73862E+02  1.38247E+02  4.33143E+02
 -4.51209E+01  3.95476E+02 -1.75723E+02  2.86173E+02 -2.26918E+02  1.44540E+02 -1.93363E+02  1.92310E+01
 -1.26871E+02 -5.28119E+01 -3.85996E+01 -7.33052E+01  2.26756E+01 -5.08326E+01  5.30598E+01  6.56768E+00
  4.61956E+01  5.40908E+01  1.51571E+01  7.72041E+01 -2.45289E+01  8.38030E+01 -5.95285E+01  7.69547E+01
 -8.20429E+01  5.93776E+01 -8.31638E+01  2.42998E+01 -8.28637E+01  6.81313E+00 -8.96683E+01 -1.74009E+01
 -7.31941E+01 -3.51521E+01 -6.47648E+01 -5.60004E+01 -4.28729E+01 -7.26263E+01 -4.11350E+00 -7.75331E+01
  1.72693E+01 -6.37706E+01  4.89969E+01 -4.24148E+01  4.83881E+01 -7.84913E+00  3.79042E+01  1.48658E+01
  1.60864E+01  4.34324E+01 -2.65642E+01  4.27519E+01 -4.70773E+01  1.29706E+01 -6.40142E+01 -1.55863E+01
 -5.79903E+01 -5.34438E+01 -2.66626E+01 -7.14234E+01  1.11375E+01 -8.77977E+01  4.17566E+01 -7.31736E+01
  7.01440E+01 -5.70353E+01  7.54113E+01 -3.58084E+01  8.51665E+01  1.36852E+00  7.53427E+01  1.93215E+01
  6.13732E+01  4.39663E+01  4.55565E+01  4.86349E+01  2.40577E+01  6.21041E+01  8.52813E+00  5.80254E+01
 -1.09942E+01  5.07591E+01 -2.93582E+01  3.85122E+01 -3.06448E+01  2.48621E+01 -2.52822E+01  2.79185E+00
 -8.93695E+00 -9.02638E+00  7.09299E+00 -7.96373E+00  2.26055E+01  8.87772E+00  1.36335E+01  2.38987E+01
  1.98097E+00  4.14894E+01 -2.08013E+01  5.25924E+01 -5.08142E+01  4.04781E+01 -6.73909E+01  1.60959E+01
 -6.13642E+01 -2.11704E+01 -3.92939E+01 -4.81395E+01 -1.38411E+01 -6.79376E+01  2.26406E+01 -6.36320E+01
  5.56603E+01 -4.18323E+01  6.37109E+01 -4.10893E+00  5.65451E+01  3.69841E+01  3.70710E+01  6.08357E+01
  3.97842E+00  6.54105E+01 -2.41980E+01  5.38364E+01 -4.42967E+01  3.50122E+01 -5.20245E+01  1.04984E+01
 -4.68188E+01 -2.56361E+00 -3.69003E+01 -2.20252E+01 -2.79789E+01 -2.31423E+01 -1.65368E+01 -3.41955E+01
 -3.35544E+00 -2.66558E+01 -5.83751E-01 -3.04412E+01  7.27031E+00 -1.77001E+01  1.56693E+01 -1.70485E+01
  2.01168E+01  2.51386E+00  1.49366E+01  6.60004E+00  4.17619E+00  1.91119E+01 -1.23732E+01  2.21466E+01
 -1.94872E+01  1.02505E+01 -2.70047E+01 -9.46528E+00 -2.95164E+01 -2.62395E+01 -9.24755E+00 -4.71487E+01
  1.20167E+01 -4.80927E+01  3.28842E+01 -3.33477E+01  4.55397E+01 -9.21906E+00  5.28856E+01  1.15569E+01
  3.66000E+01  3.63133E+01  1.03579E+01  4.92785E+01 -2.21502E+01  4.02027E+01 -3.60885E+01  2.19208E+01
 -3.98854E+01 -2.79087E+00 -3.23432E+01 -3.03176E+01 -1.16082E+01 -3.91721E+01  1.45978E+01 -3.86220E+01
  3.58832E+01 -2.62902E+01  4.61272E+01 -1.38312E+01  4.74616E+01  6.66669E+00  3.90300E+01  2.96275E+01
  2.36082E+01  4.17798E+01  8.83727E+00  5.17316E+01 -1.02224E+01  4.43847E+01 -2.54691E+01  4.57041E+01
 -4.18374E+01  3.13114E+01 -5.01024E+01  1.67377E+01 -4.29529E+01 -4.09351E+00 -3.52012E+01 -1.95580E+01
 -2.25594E+01 -3.82928E+01 -1.32479E+01 -3.48142E+01  9.03685E+00 -4.05226E+01  2.13375E+01 -2.25648E+01
  2.82056E+01 -8.43724E+00  2.13757E+01  1.19445E+01  8.98909E+00  2.29365E+01 -3.71523E+00  2.25483E+01
 -2.09495E+01  1.10815E+01 -2.37866E+01 -4.12856E+00 -1.97701E+01 -1.39955E+01 -2.31428E+00 -2.62045E+01
  7.73597E+00 -2.65398E+01  2.72294E+01 -1.37401E+01  3.02826E+01  8.79107E-02  2.44798E+01  1.40533E+01
  2.39083E+01  3.01730E+01  8.59632E+00  3.05124E+01 -1.31512E+01  2.82856E+01 -2.59424E+01  2.42029E+01
 -2.76808E+01  5.32578E+00 -3.05153E+01  1.69421E-01 -2.26878E+01 -1.75793E+01 -1.79193E+01 -2.45773E+01
 -4.71997E+00 -2.57117E+01  6.06312E+00 -3.25063E+01  1.64990E+01 -3.46145E+01  1.79223E+01 -2.21450E+01
  2.91531E+01 -1.71215E+01  3.06504E+01  3.16545E-01  3.59513E+01  1.25051E+01  2.65415E+01  2.39372E+01
  5.03836E+00  2.64151E+01  4.29861E-02  2.27098E+01 -1.03123E+01  2.53329E+01 -2.04402E+01  7.49329E+00
 -1.73435E+01  4.72582E+00 -6.34377E+00 -7.69557E+00 -3.63922E+00 -1.13311E+01  3.41838E+00 -2.07548E+00
  6.34382E+00  1.05136E+01  1.64281E+00  1.76300E+01 -5.54789E+00  1.95028E+01 -1.54554E+01  1.28523E+01
 -2.03366E+01  1.26492E+01 -2.93051E+01 -6.49004E+00 -2.42028E+01 -1.93668E+01 -2.09624E+01 -2.03751E+01
 -6.14779E+00 -2.77504E+01  1.14522E+01 -3.23247E+01  1.67728E+01 -2.01237E+01  3.12646E+01 -1.49689E+01
  2.36526E+01  2.40398E-01  2.19948E+01  1.68632E+01  1.81822E+01  1.98824E+01 -8.64707E-01  2.60181E+01
 -9.18261E+00  3.04776E+01 -2.19931E+01  2.23703E+01 -3.36665E+01  1.61664E+00 -3.88574E+01 -1.13471E+01
 -2.86890E+01 -2.25567E+01 -2.08801E+01 -3.81405E+01 -2.90849E+00 -3.69632E+01  8.10750E+00 -3.76458E+01
  2.56933E+01 -3.00029E+01  2.48702E+01 -2.01945E+01  2.19164E+01 -6.03905E+00  2.67592E+01  2.27970E+00
  1.32062E+01  8.53612E+00  1.13058E+01  8.81462E+00  9.67595E+00 -1.11623E+00  5.82604E+00  2.54569E+00
  1.11266E+01 -2.25969E-01  2.19054E+01  6.49965E+00  1.76654E+01  1.07974E+01  2.27354E+01  1.52167E+01
  1.36377E+01  1.58442E+01  6.38851E+00  2.04651E+01  2.83953E+00  2.98088E+01 -1.96262E+00  2.57497E+01
 -1.44204E+01  2.16662E+01 -1.90995E+01  2.24367E+01 -3.14570E+01  8.16822E+00 -2.25308E+01  9.47921E-01
 -2.73019E+01 -8.59414E+00 -2.11045E+01 -1.45144E+01 -1.35606E+01 -1.51460E+01  3.20128E+00 -1.99524E+01
  4.90241E+00 -1.31687E+01  1.02997E+01 -5.82504E+00  1.70521E+01 -2.04826E+00  7.72803E+00  8.22096E+00
  2.21208E+00  1.47985E+01 -1.06390E+00  7.04943E+00 -6.89425E+00  1.19360E+01 -8.67786E+00  5.34138E+00
 -1.44521E+01 -1.02484E+01 -5.02294E+00 -1.12888E+01  1.08397E+00 -7.96496E+00  7.06443E+00 -1.02253E+01
  9.64265E+00 -2.10462E+00  7.69234E+00  5.79106E+00  5.39840E+00  6.12086E+00 -5.03669E+00  7.52552E+00
 -2.92475E+00  1.00325E+01 -9.25264E+00 -3.13766E+00 -1.02754E+01 -2.78075E+00 -1.55106E+01 -1.14531E+01
 -1.08938E+01 -1.24990E+01  2.10581E+00 -1.55548E+01  8.91247E+00 -2.41799E+01  1.25630E+01 -1.73006E+01
  2.34593E+01 -1.04859E+01  2.66062E+01 -8.98573E-01  3.01808E+01  5.60716E+00  1.80464E+01  1.33537E+01
  1.73164E+01  1.70115E+01  7.31843E-01  2.20527E+01 -8.31874E+00  2.01880E+01 -8.90164E+00  1.33842E+01
 -1.59984E+01  8.16174E+00 -1.22477E+01 -1.62759E+00 -1.51611E+01 -2.58619E+00 -9.42415E+00 -8.96989E+00
  3.12597E-01 -1.63010E+01  4.97978E+00 -6.92220E+00  1.31354E+01 -1.70592E+00  4.19926E+00 -1.89445E+00
  7.36961E+00  4.99599E+00  9.14748E+00  6.92030E+00  3.47676E+00  5.77255E+00  1.52541E+00  8.19790E+00
 -9.41335E+00  1.94750E-01 -3.08474E+00  7.37059E+00 -4.21520E+00 -4.53734E+00 -1.95635E+00  2.22046E+00
 -4.21068E+00 -1.79692E+00  4.58221E+00  2.17325E+00  3.03583E-01  1.01456E+01 -3.61965E+00  1.32529E+01
 -2.54479E+00  6.17394E+00 -1.44281E+01  9.66479E+00 -1.49934E+01  9.07907E+00 -1.50238E+01 -4.84581E+00
 -2.29224E+01 -3.12977E+00 -2.02909E+01 -1.87863E+01 -1.15592E+01 -1.67480E+01 -1.31746E+00 -2.39135E+01
  9.50197E+00 -1.51475E+01  8.26216E+00 -1.05529E+01  2.01393E+01 -7.59850E+00  1.23129E+01 -1.03440E+00
  1.10795E+01  5.74262E+00  1.03135E+01  3.77341E+00 -1.40597E+00  4.39573E+00 -5.55838E+00  4.17698E+00
 -3.39263E+00  2.04140E+00 -6.04945E+00 -4.97041E+00  3.36734E+00 -5.56681E+00  2.14254E+00 -4.98031E+00
  5.42945E+00 -5.91937E+00  7.64639E+00 -3.55559E+00  1.11447E+01  1.59138E+00  8.43366E+00  7.90767E+00
  1.00240E+01  1.50855E+01  5.54849E+00  1.01859E+01 -5.76118E+00  8.47739E+00 -3.68477E+00  2.91402E+00
 -1.15519E+01  5.83411E+00 -1.16612E+01 -4.64532E+00 -9.26864E+00 -1.77420E+00 -4.51013E+00 -8.63086E+00
  3.48042E+00 -2.24554E+00  9.67399E+00 -5.18716E+00  1.16873E+01 -4.19725E+00  1.37966E+01  6.92217E+00
  9.03774E+00  7.20478E+00  8.09921E-01  1.21670E+01 -5.21771E+00  1.14974E+01 -6.76748E+00  1.35303E+01
 -1.07131E+01  7.09730E-01 -2.21319E+01  9.64516E-01 -1.25305E+01 -8.97957E+00 -5.36899E+00 -1.90775E+01
 -5.02715E+00 -1.88325E+01  1.58103E+00 -2.07336E+01  1.53017E+01 -1.64484E+01  9.79163E+00 -1.13525E+01
  1.08992E+01 -1.49990E+00  1.14756E+01  6.73416E+00  6.13798E+00  7.42956E+00  7.64895E+00  1.53382E+01
  2.35502E+00  1.06523E+01 -2.44007E-01  5.99794E+00 -4.62668E+00  9.60425E+00 -1.29690E+01  1.31122E+00
 -1.31055E+01  9.38689E-01 -2.95889E+00  5.85117E-01 -2.62884E+00 -7.13894E+00 -2.70121E+00 -9.22139E+00
  3.62456E+00 -1.99081E+00  3.21655E+00 -9.31796E-01  1.27160E+00 -2.21489E+00 -5.42813E+00  4.23333E+00
 -9.02523E+00  3.07612E+00 -3.65718E+00 -8.48430E+00 -1.16427E+01 -2.95537E+00 -6.68021E+00 -1.26837E+01
 -3.93563E+00 -1.47776E+01  6.38183E+00 -8.11588E+00  1.26516E+01 -1.09492E+01  1.32832E+01 -5.46530E+00
  1.69991E+01  7.43584E+00  1.33030E+01  8.49547E+00  9.17076E+00  5.53657E+00  2.53581E+00  1.18683E+01
  3.89253E+00  6.37177E+00 -7.15230E-01  1.27566E+01 -8.41186E+00  6.10880E+00 -6.75381E+00  3.67909E+00
 -3.08146E+00  3.55769E+00 -7.24228E+00 -8.62263E-01 -3.57257E+00  3.79100E+00  2.44591E+00 -1.47350E+00
 -2.73732E+00  2.25814E+00 -4.64432E+00  7.60565E-01 -4.92728E+00  2.81944E+00 -8.70003E+00 -6.61491E-01
 -6.44212E+00  9.01581E-01 -3.67770E+00 -9.75255E-01 -5.64998E+00 -4.13124E+00 -4.08949E+00 -5.64195E+00
 -2.26946E+00 -3.19132E+00 -3.43237E+00 -1.04592E+01  4.65390E+00 -6.98931E+00  7.46008E+00 -3.73903E+00
  8.73302E+00  5.36921E+00  4.25660E+00  4.74662E-01 -3.41647E+00  5.88789E+00 -8.34211E+00  4.55051E+00
 -9.46171E+00  6.54190E+00 -1.33149E+01 -7.43735E+00 -1.01889E+01 -7.16827E+00 -1.24102E+01 -1.72774E+01
 -2.02110E-01 -1.60437E+01  5.25431E+00 -1.63069E+01  6.20014E+00 -1.02615E+01  1.90089E+01 -1.28352E+01
  1.22407E+01 -5.18518E+00  1.43880E+01  3.77788E+00  1.65520E+01  2.13366E+00  4.36725E+00  1.30886E+01
  8.36368E+00  8.99360E+00  6.49874E+00  1.10197E+01  2.97016E+00  1.36574E+01 -7.49795E+00  1.01488E+01
 -5.27184E-01  3.90480E+00 -5.43470E+00  2.67764E+00  2.47725E+00 -3.52369E-01 -6.02530E+00 -7.15048E-01
  2.03441E+00  6.62314E-01 -6.29632E+00  8.63547E+00 -3.68039E+00  6.57354E+00 -9.36560E+00  5.65857E+00
 -6.40554E+00  3.49170E+00 -1.28173E+01  6.09564E+00 -1.63528E+01  1.67532E+00 -7.43300E+00 -1.21229E+01
