 $NMID ID='dataset12', FMTDAT='(8E13.5)'
 TRAMP=1, VOLUME=1 $END
  2.30343E+02  7.27273E+01  4.10617E+02  1.95681E+02  2.79076E+02  3.20886E+02  1.36856E+02  3.82504E+02
 -4.02155E+01  3.59957E+02 -1.36073E+02  2.67857E+02 -1.93226E+02  1.39550E+02 -1.86793E+02  4.05701E+01
 -1.27986E+02 -1.55759E+01 -5.42947E+01 -5.38682E+01  1.21068E+00 -2.15508E+01  3.98870E+01 -6.55889E-01
  1.36608E+01  4.46093E+01  5.57370E+00  8.08367E+01 -3.69101E+01  5.65492E+01 -6.48814E+01  5.36931E+01
 -8.24075E+01  4.08389E+01 -9.32201E+01  7.77059E+00 -6.84510E+01 -1.17878E+01 -9.23206E+01 -2.19298E+01
 -7.57002E+01 -2.32695E+01 -6.75566E+01 -6.69704E+01 -4.25010E+01 -6.61804E+01  4.63577E+00 -5.74607E+01
  1.01151E+01 -4.61924E+01  4.69175E+01 -3.86661E+01  3.19616E+01 -1.76157E+01  3.97801E+01 -2.04407E+00
  1.68522E+01  2.55439E+01 -2.21718E+01  5.00892E+01 -2.62754E+01  3.42567E+01 -6.95553E+01 -1.17705E+01
 -6.29770E+01 -3.57625E+01 -3.81717E+01 -5.05487E+01 -1.68457E+01 -5.97332E+01  1.50220E+01 -5.17590E+01
  7.08334E+01 -6.09548E+01  8.73957E+01 -2.02662E+01  9.00460E+01 -2.30529E+01  8.52903E+01  1.90341E+01
  6.40011E+01  1.04456E+01  5.84898E+01  3.64123E+01  4.02488E+01  3.13672E+01  1.36457E+01  5.92032E+01
  8.62572E+00  3.76176E+01 -3.89323E+00  4.94499E+01 -3.27672E+01  2.28958E+01 -1.93925E+01 -5.28953E+00
 -2.77601E+01 -2.24918E+01  4.28304E+00 -9.41676E+00 -6.99630E-01  2.34072E+01  1.62294E+01  2.98370E+01
  2.44803E+00  3.75311E+01 -1.29877E+01  5.35863E+01 -2.39428E+01  4.02578E+01 -4.73050E+01  1.18201E+01
 -4.50031E+01 -4.33276E+00 -1.60728E+01 -2.46047E+01  7.93237E+00 -5.57668E+01  1.13972E+01 -4.21855E+01
  6.95356E+01 -1.84791E+01  5.25987E+01 -9.99710E+00  4.25538E+01  2.43018E+01  1.85046E+01  7.27834E+01
 -8.64977E+00  7.03147E+01 -1.60049E+01  4.38568E+01 -4.99748E+01  3.06826E+01 -3.79167E+01  3.54693E+01
 -4.68049E+01 -6.93002E+00 -4.32340E+01 -3.28746E+00 -1.21738E+01 -3.47405E+01 -2.44459E+00 -7.13762E+00
 -8.56914E+00 -2.44869E+01  8.37255E+00 -2.49271E+01  6.78884E+00 -2.98622E+01 -2.53853E+00 -9.01545E+00
  1.94683E+01 -2.08069E+01  1.34417E+01 -6.34123E+00  1.34513E+01  1.61171E+01  3.13289E+00  1.14493E+01
 -3.76280E+01  1.87405E+01 -6.08007E+00 -1.23028E+01 -5.18386E+00 -1.20353E+01 -3.97817E+00 -4.34500E+01
  2.09668E+01 -2.70287E+01  3.22545E+01 -3.85564E+01  4.31884E+01 -1.43842E+01  2.90891E+01 -7.52055E+00
  2.03440E+01  2.17996E+01  1.44772E+01  3.43398E+01  1.58973E+00  2.91538E+01 -1.41757E+01  6.11690E+00
 -1.62938E+01  1.37246E+01 -2.49563E+01 -3.77736E+01  1.40241E+00 -3.87338E+01  2.00396E+01 -2.65270E+01
  4.73358E+01 -2.67419E+01  5.31358E+01 -7.95363E+00  2.76084E+01  7.01522E+00  3.71085E+01  4.07721E+01
  3.13422E+01  5.63821E+01  1.32658E+01  6.30954E+01 -2.50143E+01  6.25865E+01 -4.06181E+01  4.32311E+01
 -4.95937E+01  4.02411E+01 -5.29344E+01  2.04830E+01 -2.83524E+01  1.39021E+00 -1.92377E+01  4.15776E+00
 -1.73635E+01 -1.72632E+01 -4.57202E+00 -2.74092E+01  1.88452E+01 -4.38406E+01  1.61484E+01 -2.33793E+01
  1.98022E+01 -2.64412E+01  1.45645E+01 -1.31830E+01  1.33895E+01  1.96694E+01  1.17299E+01  3.03512E+00
 -1.16478E+01 -1.17189E+00 -1.26928E+01  1.49435E-01 -1.18332E+01 -1.19621E+00  1.49251E+01 -1.12855E+01
  1.65624E+01 -3.93693E+01  1.76527E+01 -5.29897E+00  4.35075E+01 -8.02471E+00  2.31852E+01  2.01333E+01
  5.19272E+00  1.01581E+01  1.49691E+01  1.57045E+01 -1.71073E+00  1.38369E+01 -3.15380E+01  3.64327E+01
 -3.38701E+01  1.36182E+01 -3.85147E+01  1.02958E+01 -3.94807E+01 -2.09815E+01 -5.52370E+00 -2.03858E+01
 -2.49632E+01 -2.35695E+01 -1.33454E+01 -3.40212E+01  1.04662E+01 -1.99292E+01  1.13134E+01 -8.58825E+00
  4.48912E+01  5.37941E+00  1.49249E+01  3.65614E+00  1.52834E+01 -4.26127E+00  1.52210E+01  2.51252E+01
  3.49189E+00  7.47317E+00 -3.70070E+00  7.96597E+00 -5.99493E+00  2.52791E+01 -2.28080E+01  3.19921E+01
 -2.28063E+01  6.43627E+00 -5.81539E+00 -1.19421E+01  8.91777E+00 -1.16770E+01  2.48801E-01  1.18573E+01
  7.69334E+00  2.64227E+01 -1.98735E+01  1.07251E+01 -5.32823E+00  3.44602E+01 -3.24301E+00  1.43022E+01
 -4.21533E+01  1.01042E+01 -3.04734E+01  1.58756E+00 -1.99766E+01 -2.10617E+01 -1.00011E+01 -3.45826E+01
 -7.36211E+00 -2.76139E+01  2.40537E+01 -2.75145E+01  3.41388E+01 -2.68392E+00  1.86182E+01 -2.84083E+01
  4.17715E+01 -1.11728E+01  2.07630E+01  1.36098E+01  3.97986E+00  2.88513E+01  2.08100E-01  2.40595E+01
 -1.76428E+01  4.33944E+00 -1.97339E+01  2.65299E+01 -4.31902E+01  1.10527E+01 -1.83637E+01  9.88847E+00
 -2.62765E+01 -3.70385E+01 -6.76057E+00 -3.83782E+01  3.29749E+00 -2.91626E+01  3.64396E+00 -4.65618E+01
  3.10443E+00 -4.35571E+01  4.61697E+00 -3.16989E+01  3.37532E+01 -1.50901E+01  1.48915E+01 -2.40844E+00
  2.17664E+01  7.75552E+00  3.48658E+01 -1.29903E+01  1.58804E+01  1.13517E+01  7.44130E+00 -1.82712E+01
 -3.18921E+00  5.31179E+00  6.28797E-01  1.61262E+01  1.73790E+01  1.36070E+01  6.92928E+00  3.44571E+01
  2.31502E+01  3.50597E+01  1.44082E+01  1.24711E+01 -1.55919E+01  4.74398E+01  2.16673E+00  2.27711E+01
 -2.49566E+01  3.41447E+01 -1.51258E+01  3.12206E+00 -1.99148E+01  1.62292E+01 -2.15267E+01  4.60117E+00
 -2.53561E+01 -1.72366E+01 -1.21008E+01 -3.07112E+01 -1.41768E+01 -1.67861E+01  1.05809E+01 -1.86492E+01
  5.99700E-02 -8.97490E+00  2.36957E+01 -5.03883E+00  2.47166E+01  7.06272E+00  2.71313E+01 -6.03656E+00
  9.68575E+00  5.16919E-01 -7.67527E-01  2.34329E+01  8.08266E+00 -7.16435E+00 -2.66118E+00 -1.39881E+01
 -1.19159E+01  1.10983E+01 -5.17399E+00  2.53032E+00 -8.75055E+00 -6.92349E+00  1.85230E+01 -1.16245E+00
  3.83308E+00 -1.44812E+01 -7.94008E+00  1.71066E+01 -4.29173E+00  4.45667E+00 -1.38615E+01 -6.87829E+00
 -1.69559E+01  2.26469E+01 -6.67050E+00 -8.98125E+00 -4.60258E+00 -2.27475E+01  9.26047E-01 -1.67822E+01
 -6.73826E+00 -1.86856E+01 -3.15901E+00 -1.36406E+01  1.72394E+01  6.12806E-01  2.99446E+01 -1.39348E+01
  1.51154E+01 -2.82589E+01  1.11049E+01 -1.18039E+01  3.41172E+01 -6.72490E+00  1.29791E+01  1.19227E+01
  9.83507E+00  7.73187E+00  2.11640E+01  3.11499E+01 -8.67759E+00  3.48452E+01 -1.89317E+01  2.93450E+01
 -3.27579E+01  1.51054E+00 -9.38480E+00 -1.40759E+01 -1.11436E+01 -4.98847E+00 -2.57558E+01 -1.66962E+01
  6.13793E+00 -3.52847E+00 -4.91868E-01 -9.37906E+00  1.62251E+01  1.10385E+01 -8.70082E+00  1.00465E+01
  5.27610E+00 -1.13084E+01  4.53703E+00  1.92500E+01 -7.91911E+00  5.48248E+00  3.22578E+00  2.29999E+01
  1.29376E+01 -2.78424E+00 -1.13923E+01  1.38900E+00 -1.50174E+01 -1.39697E+01 -1.59953E+01  9.90408E-01
 -5.47488E+00 -1.26636E+01  4.56337E+00 -1.28203E+01 -2.22193E+01  2.52266E+01 -1.88815E+01 -6.49319E-02
  7.42137E+00  1.27930E+01  5.49508E+00  2.21593E+01 -3.47690E+01  2.08475E+01 -7.29664E+00 -1.82606E+01
 -8.44187E+00  6.55859E+00 -1.90054E+01 -4.98573E+00 -1.26542E+01 -1.49906E+01  2.38405E+00 -1.65923E+01
  2.45157E+01 -3.23586E+01 -5.66583E+00 -1.07336E+01  2.04661E+01 -2.40458E+01  2.04210E+01 -1.18057E+01
  1.81709E+01 -9.41118E+00  3.61045E+00 -2.98517E+00  1.23520E+01 -4.84399E+00 -1.10098E+00  1.80206E-01
  1.11172E+01  8.43083E+00  1.39421E+01 -1.89138E+01  5.48449E+00  6.31073E-01 -8.58784E+00  2.78397E+00
  3.10038E+00 -4.13522E+00  1.08648E+01  1.37569E+01  2.99002E+00 -1.42212E+01  1.87427E+01  1.20070E+01
 -5.02773E+00 -5.69920E+00 -1.71073E+01 -4.03591E+00  2.29277E+00 -9.66611E+00 -1.77453E+01 -6.42599E+00
  1.27481E+01  1.79049E+01 -9.56934E+00  1.90641E+01 -1.40374E+01 -1.74684E+01 -6.59908E+00 -1.51594E+01
  1.70326E+01  1.36633E+01 -5.10695E+00  1.24937E+01  2.33328E+01  1.88295E+00 -9.97137E+00  1.25988E+01
  1.61249E+01  5.44228E+00  1.15289E+01  1.19431E+01  7.23185E+00  2.25661E+01 -1.85656E+01 -9.19454E-01
 -2.81405E+01  1.14755E+01 -3.44973E+01 -6.90971E+00 -1.40106E+01 -2.05954E+01 -1.10306E+01  8.89791E-01
  9.15842E+00 -1.74188E+01  8.34645E+00 -3.54203E+00  1.12758E+01 -2.43511E+01  3.03760E+01 -1.83411E+01
  7.66714E+00  1.11304E+01  2.12346E+01 -1.50117E+01  1.12522E+01  1.21774E+01 -1.02199E+01  2.14140E+01
 -1.79705E+01  8.08985E+00  1.31701E+01  2.26493E+01 -1.37999E+00 -3.07757E+00  1.01332E+01 -1.50048E+01
  6.70606E+00  6.20607E+00  1.83961E+00 -2.03799E+01 -3.07290E+00 -1.11617E+01 -2.10084E+01  8.88196E+00
  1.23889E+01 -1.49383E+01  4.41281E+00  6.96238E+00 -1.79589E+01  1.95158E+00 -1.90196E+01  7.84866E+00
  5.80348E+00  1.47243E+01  3.42588E+00  1.62827E+00  6.68462E+00  8.97311E+00  1.65384E+01 -3.12416E+01
  1.22303E+01  6.07253E+00  2.35836E+01  6.84397E+00  1.97812E+01 -1.36939E+01  1.68531E+01  4.76260E+00
  2.67953E-01 -4.51111E+00  3.27806E+01  8.06921E+00 -8.58959E+00 -4.78978E+00  2.19472E+01  1.97497E+01
  1.02006E+01 -9.94357E-01 -8.44261E+00  3.03550E+00 -2.15393E+01  1.56649E+00 -2.18608E+00  2.10490E+00
 -2.25220E+01  1.56378E+01 -9.55089E-01  1.20205E+01 -4.21185E+00  1.72247E+01 -7.84840E+00  4.86434E+00
  1.44495E+01 -1.49258E+01 -8.87273E+00 -1.25645E+01 -1.22185E+01  1.31633E+01 -2.03406E+01  1.60709E+01
 -1.45697E+01 -7.87587E+00  1.49620E+00 -1.73508E+01 -2.44951E+00 -1.50592E+01  5.52769E+00 -1.17233E+01
 -1.78468E+01 -2.34951E+01 -1.13091E+01 -1.47335E+01 -1.29155E+01 -1.91594E+01 -2.65343E+00 -2.20443E+00
  1.15114E+01  4.59173E+00 -4.58835E+00  1.21625E+01 -9.71543E+00  1.03084E+01 -2.19690E+01 -1.67495E+01
 -1.43898E+01  1.14178E+01 -2.68685E+01  1.27351E+01 -7.17772E+00 -1.36748E+01 -1.59457E+01 -2.64123E+01
 -1.15159E+01 -1.44767E+01  1.58928E+01 -2.29834E+01  6.20978E+00 -1.17284E+01  5.69956E+00  6.97339E+00
  2.34523E+01  2.78394E+00  1.14283E+01 -2.03826E+00  5.80516E+00  1.71008E+01  1.33080E+01  1.26617E+01
  6.19552E+00  8.09821E-01 -7.50678E+00 -8.26243E+00 -1.03537E+01  1.86769E+01 -1.53768E+01  1.19772E+01
  7.19893E+00  7.04832E+00  1.65507E+01 -9.79012E+00  7.83666E+00  3.21134E+00  1.40433E+01 -6.89483E+00
 -1.26459E+01 -1.15135E+01 -7.19487E+00  1.19688E+01 -1.50001E+01  1.38150E+01  3.31422E+00  1.39577E+01
  6.63606E+00  2.07414E+01 -6.21975E+00  2.76317E+00 -1.78279E+01 -2.09828E+01  6.75908E+00 -1.05329E+01
