 $NMID ID='dataset8', FMTDAT='(8E13.5)'
 TRAMP=1, VOLUME=1 $END
  2.61089E+02  1.03241E+02  4.69867E+02  2.14967E+02  3.26871E+02  3.67654E+02  1.30611E+02  4.26372E+02
 -4.77747E+01  3.84984E+02 -1.73085E+02  2.80603E+02 -2.21054E+02  1.42274E+02 -1.95295E+02  2.17063E+01
 -1.22964E+02 -5.63427E+01 -4.20771E+01 -7.11920E+01  2.41496E+01 -4.67367E+01  5.38116E+01  6.12410E+00
  4.32478E+01  5.36290E+01  1.26759E+01  8.10754E+01 -2.65717E+01  9.16387E+01 -6.00193E+01  7.37997E+01
 -7.79506E+01  5.45001E+01 -8.71534E+01  2.88223E+01 -8.63707E+01  4.32723E+00 -8.25185E+01 -1.65199E+01
 -7.71751E+01 -3.95951E+01 -6.11715E+01 -5.49262E+01 -3.57084E+01 -7.19134E+01 -1.01028E+01 -7.56293E+01
  2.29291E+01 -6.58644E+01  4.49037E+01 -4.46840E+01  5.07333E+01 -8.22319E+00  3.97852E+01  1.86512E+01
  1.16384E+01  3.71028E+01 -2.37851E+01  3.97404E+01 -4.77840E+01  2.00379E+01 -6.31128E+01 -1.50680E+01
 -5.10476E+01 -4.83803E+01 -3.15598E+01 -7.05181E+01  2.81219E+00 -8.45150E+01  3.74428E+01 -7.42879E+01
  6.10528E+01 -5.53054E+01  7.88557E+01 -3.05394E+01  7.61468E+01 -5.43757E+00  6.90413E+01  2.19603E+01
  5.67634E+01  3.82803E+01  4.26837E+01  5.10379E+01  2.26430E+01  5.75172E+01  5.13267E+00  5.74531E+01
 -1.46005E+01  5.02909E+01 -2.64328E+01  3.45581E+01 -2.78712E+01  1.45223E+01 -2.24999E+01 -1.30985E+00
 -7.43546E+00 -7.99759E+00  8.15493E+00 -4.99305E+00  1.87571E+01  4.00034E+00  2.10701E+01  2.93613E+01
  6.39101E+00  4.31149E+01 -1.89478E+01  5.17609E+01 -4.62665E+01  4.09274E+01 -6.35028E+01  1.25225E+01
 -6.45104E+01 -1.83206E+01 -4.52650E+01 -4.99511E+01 -1.03802E+01 -6.77545E+01  2.59199E+01 -5.96521E+01
  5.38412E+01 -3.72646E+01  6.98987E+01 -7.96374E-01  5.81537E+01  3.45883E+01  3.46223E+01  5.94038E+01
  5.85867E+00  6.45159E+01 -2.64797E+01  6.07196E+01 -4.38612E+01  3.93759E+01 -5.37490E+01  1.62172E+01
 -4.92392E+01 -6.11108E+00 -3.88350E+01 -1.64637E+01 -2.66971E+01 -2.49679E+01 -1.52929E+01 -2.61854E+01
 -7.91461E+00 -3.05617E+01  4.35610E+00 -2.35778E+01  9.00411E+00 -2.00232E+01  1.45082E+01 -1.43363E+01
  1.76956E+01 -1.86625E+00  1.17759E+01  1.09819E+01  3.10924E+00  1.57958E+01 -1.23720E+01  1.71687E+01
 -2.87278E+01  7.94344E+00 -3.03744E+01 -9.08279E+00 -2.95125E+01 -2.93188E+01 -1.04239E+01 -4.49030E+01
  1.23138E+01 -4.98627E+01  3.74735E+01 -3.72240E+01  5.09797E+01 -1.23108E+01  5.10043E+01  1.05381E+01
  3.56531E+01  3.67096E+01  1.06743E+01  4.52600E+01 -1.90150E+01  3.97907E+01 -3.48384E+01  2.12214E+01
 -3.86140E+01 -6.25608E+00 -2.84627E+01 -2.65448E+01 -1.03496E+01 -4.18673E+01  1.39562E+01 -4.05544E+01
  3.30556E+01 -3.00024E+01  4.98666E+01 -1.32858E+01  5.14727E+01  1.14020E+01  4.11688E+01  2.87694E+01
  2.70112E+01  4.12901E+01  6.62145E+00  5.19697E+01 -7.40539E+00  4.73186E+01 -2.33560E+01  4.05343E+01
 -3.55367E+01  3.09155E+01 -4.33514E+01  1.36755E+01 -4.83485E+01 -5.78984E+00 -3.84100E+01 -1.99361E+01
 -2.99484E+01 -3.44681E+01 -8.02867E+00 -3.68267E+01  8.91343E+00 -3.74053E+01  2.24426E+01 -2.16692E+01
  2.64771E+01 -5.28945E+00  1.99806E+01  9.27155E+00  1.18022E+01  1.80927E+01 -5.83220E+00  1.63128E+01
 -1.77364E+01  7.70616E+00 -1.92906E+01 -5.03876E+00 -1.79291E+01 -1.68873E+01 -6.54087E+00 -2.62587E+01
  1.26677E+01 -2.91923E+01  2.28155E+01 -1.91537E+01  3.37540E+01 -4.33588E+00  3.10820E+01  1.09147E+01
  1.74343E+01  2.29275E+01  7.04114E+00  3.00233E+01 -8.23290E+00  3.16040E+01 -2.08990E+01  1.87826E+01
 -2.80634E+01  1.04624E+01 -3.06817E+01 -3.37558E+00 -2.50917E+01 -1.26256E+01 -2.16631E+01 -2.38914E+01
 -9.05155E+00 -3.07434E+01  4.21110E+00 -3.22707E+01  1.39704E+01 -3.11140E+01  2.59783E+01 -2.12162E+01
  3.09054E+01 -1.19093E+01  3.61779E+01  4.41336E-01  3.30107E+01  1.27406E+01  2.42669E+01  2.64029E+01
  1.14520E+01  3.12860E+01 -2.64873E+00  2.64588E+01 -1.24413E+01  2.08367E+01 -1.85460E+01  1.36488E+01
 -1.65244E+01  2.72784E+00 -9.70024E+00 -5.37706E+00 -3.63628E+00 -3.73653E+00  5.16623E+00  1.64707E+00
  6.57337E+00  5.51581E+00  2.32795E+00  1.57010E+01 -7.44404E+00  1.49512E+01 -1.54976E+01  1.51256E+01
 -2.43611E+01  6.97547E+00 -2.96727E+01 -3.51653E+00 -2.80495E+01 -1.73855E+01 -1.70888E+01 -2.69592E+01
 -3.49002E+00 -3.19330E+01  9.82992E+00 -3.16321E+01  1.91819E+01 -2.08879E+01  2.80062E+01 -1.17436E+01
  3.03595E+01  3.14887E+00  2.38209E+01  1.64378E+01  1.18919E+01  2.43313E+01  1.52723E+00  2.75915E+01
 -1.50558E+01  2.69429E+01 -2.57514E+01  1.87719E+01 -3.14883E+01  4.57605E+00 -3.50379E+01 -6.73233E+00
 -3.04748E+01 -2.47736E+01 -1.90627E+01 -3.52665E+01 -6.28542E+00 -3.69491E+01  1.22548E+01 -3.47201E+01
  2.18759E+01 -2.80214E+01  2.85248E+01 -1.89033E+01  2.44531E+01 -7.60005E+00  2.56405E+01 -1.32349E+00
  1.75887E+01  2.60170E+00  1.19642E+01  6.36303E+00  9.53957E+00  1.33450E+00  9.16777E+00  2.81832E+00
  1.36980E+01 -1.20796E+00  1.60418E+01  2.04460E+00  1.99410E+01  8.46606E+00  1.79136E+01  1.43772E+01
  1.64223E+01  1.90383E+01  8.07634E+00  2.82182E+01  3.80444E+00  3.03688E+01 -5.99002E+00  2.77951E+01
 -1.81128E+01  2.73302E+01 -2.10785E+01  1.84230E+01 -2.93984E+01  1.15255E+01 -3.05517E+01 -8.56246E-02
 -2.61583E+01 -1.15641E+01 -1.67061E+01 -1.73333E+01 -7.70647E+00 -2.13739E+01  1.72781E+00 -2.29105E+01
  7.31579E+00 -1.47703E+01  1.27004E+01 -1.05624E+01  1.16883E+01 -8.72196E-01  7.46222E+00  5.21087E+00
  3.88799E+00  1.05590E+01 -5.00267E+00  1.24589E+01 -1.05375E+01  5.49307E+00 -1.31508E+01  5.98517E-01
 -1.14871E+01 -5.14471E+00 -5.83575E+00 -1.09474E+01 -1.81006E+00 -1.02561E+01  5.85002E+00 -9.36538E+00
  1.09239E+01 -1.99413E+00  9.29814E+00  7.60832E-01  2.91121E+00  7.42064E+00 -2.15649E-01  8.09892E+00
 -6.79705E+00  8.33480E+00 -1.20720E+01  9.99518E-01 -1.30110E+01 -1.10774E+00 -8.13488E+00 -1.02994E+01
 -6.02619E+00 -1.54903E+01 -2.87685E+00 -1.87252E+01  5.76793E+00 -2.14096E+01  1.46766E+01 -1.67656E+01
  1.92379E+01 -1.12885E+01  2.33682E+01 -3.13245E+00  2.30793E+01  6.78672E+00  2.23740E+01  1.40249E+01
  1.21063E+01  1.95219E+01  5.95534E+00  2.63240E+01 -2.90669E+00  2.42332E+01 -1.14214E+01  1.71050E+01
 -1.58918E+01  1.04270E+01 -1.77656E+01  2.62691E+00 -1.32485E+01 -6.40613E+00 -5.74030E+00 -9.36209E+00
  2.56269E+00 -1.09657E+01  7.26012E+00 -7.53841E+00  1.17942E+01 -5.52394E+00  6.87880E+00  1.53679E+00
  8.42218E+00  6.82795E+00  5.10326E+00  9.88043E+00  2.29874E+00  8.15216E+00 -2.42985E+00  6.23950E+00
 -6.95122E+00  3.14452E+00 -2.96214E+00  1.91635E+00 -2.68860E+00 -6.46780E-01 -2.40339E+00  1.41272E+00
  2.53452E+00 -7.80897E-01 -1.25458E+00  3.87559E+00 -1.97088E+00  7.50083E+00 -4.83198E+00  6.33895E+00
 -3.66028E+00  8.38667E+00 -1.23420E+01  7.54303E+00 -1.51782E+01  3.83301E+00 -1.76551E+01 -2.75249E+00
 -1.77468E+01 -5.81236E+00 -1.72771E+01 -1.36581E+01 -1.17789E+01 -2.13984E+01 -3.11537E+00 -1.97798E+01
  5.95538E+00 -1.79329E+01  1.41792E+01 -1.68145E+01  1.57014E+01 -8.41669E+00  1.71742E+01 -1.26956E+00
  9.25615E+00  8.89843E+00  3.08987E+00  1.06421E+01 -6.58422E-01  5.57849E+00 -3.69918E+00  5.37845E+00
 -3.87854E+00 -1.37350E+00 -3.78552E+00 -7.48002E+00 -1.66726E+00 -1.10597E+01  6.04638E+00 -6.62527E+00
  6.40656E+00 -8.23487E+00  1.38374E+01 -2.18808E+00  1.46196E+01  4.64251E+00  1.25423E+01  5.33051E+00
  6.77669E+00  8.08433E+00  2.89691E+00  8.98315E+00 -4.64076E+00  1.28783E+01 -3.77271E+00  6.44389E+00
 -1.03468E+01  5.52201E+00 -8.19713E+00 -1.18760E+00 -6.99585E+00 -5.05791E+00 -2.65010E+00 -9.66224E+00
  3.84784E+00 -9.97052E+00  4.71740E+00 -3.10590E+00  1.13978E+01 -2.65713E+00  9.30113E+00  3.13268E+00
  8.40524E+00  9.40905E+00 -1.12658E-01  1.13438E+01 -4.80593E+00  1.22100E+01 -8.49494E+00  1.08254E+01
 -1.36780E+01  7.59336E+00 -1.53414E+01  1.56006E+00 -1.59842E+01 -1.08590E+01 -8.02962E+00 -1.14223E+01
 -4.98879E+00 -1.69601E+01  1.49502E+00 -1.68407E+01  6.55790E+00 -1.05246E+01  1.07779E+01 -7.75635E+00
  1.46233E+01 -9.85594E-01  1.31075E+01  6.17503E+00  8.85514E+00  1.05205E+01  3.07980E+00  1.30465E+01
 -1.02156E-02  8.66361E+00 -1.88781E+00  1.10287E+01 -7.00924E+00  4.24979E+00 -9.12994E+00  3.20232E+00
 -8.51584E+00  8.97538E-01 -9.11353E+00 -5.27575E+00 -5.02364E+00 -5.87515E+00  9.56155E-01 -2.62101E+00
 -6.77241E-01 -5.01659E+00 -6.70557E-01  1.51174E+00  4.85952E-01 -2.93550E-01 -4.96897E+00  3.26722E+00
 -6.18291E+00  2.36649E+00 -8.05123E+00 -4.74508E+00 -4.63507E+00 -9.87583E+00 -2.67930E+00 -1.03315E+01
  1.95889E+00 -1.20329E+01  7.96721E+00 -1.36764E+01  1.05449E+01 -8.37505E+00  1.22639E+01 -5.40159E+00
  1.67552E+01 -9.89543E-01  1.35672E+01  8.24387E+00  6.70502E+00  9.37482E+00  4.74583E+00  9.76494E+00
 -1.43361E-01  8.80548E+00 -6.23162E+00  9.02803E+00 -6.77716E+00  2.34473E+00 -3.62769E+00  1.55065E+00
 -5.94301E+00  8.78541E-01 -1.80067E+00  1.28402E+00 -2.93485E+00  2.28362E+00 -3.33850E+00  1.87366E+00
  1.21790E+00  3.14980E+00 -3.68703E+00  2.26531E+00 -2.79228E+00  2.12205E+00 -5.16188E+00  2.12584E+00
 -3.93790E+00  3.33513E+00 -4.69715E+00  9.42968E-01 -7.53970E+00 -5.50137E-01 -8.38150E+00 -5.43145E+00
 -6.39001E+00 -4.23690E+00 -1.97698E+00 -7.03303E+00  8.84106E-01 -6.47685E+00  3.43799E+00 -4.59909E+00
  4.82787E+00  2.16700E+00  2.86676E+00  4.06161E+00  2.02004E-01  4.99656E+00 -4.54177E+00  6.26596E+00
 -8.44366E+00  4.04113E+00 -8.42270E+00 -3.24282E+00 -9.20585E+00 -6.25716E+00 -9.42146E+00 -1.24484E+01
 -1.35185E+00 -1.42913E+01  5.34364E+00 -1.30613E+01  9.18279E+00 -1.45865E+01  1.39603E+01 -7.58116E+00
  1.61235E+01 -5.06216E+00  1.46685E+01  2.50322E+00  1.26349E+01  3.58258E+00  9.19507E+00  7.64939E+00
  4.33741E+00  1.25729E+01 -4.69478E-01  9.61922E+00 -1.48292E+00  7.33514E+00 -4.57415E+00  8.00037E+00
 -1.44090E-01  5.65309E+00 -4.01940E+00  2.44092E+00 -1.61187E+00  4.40943E+00 -2.76720E+00  5.50947E+00
  2.02040E+00  3.51366E+00 -1.48202E+00  5.85450E+00 -2.72439E+00  5.38733E+00 -7.67038E+00  6.01028E+00
 -7.61340E+00  4.02637E+00 -9.61311E+00  3.27804E+00 -1.13479E+01 -6.07772E+00 -1.14422E+01 -8.06826E+00
