 $NMID ID='dataset6', FMTDAT='(8E13.5)'
 TRAMP=1, VOLUME=1 $END
  5.64712E+04  1.87798E+00  5.63248E+04 -2.29446E+00  5.61442E+04  1.91343E+01  5.60026E+04 -1.53916E+01
  5.58598E+04  4.81098E+00  5.57054E+04 -2.02486E+01  5.55513E+04  6.64407E+00  5.53797E+04 -1.74933E+01
  5.51962E+04 -5.95370E+00  5.50450E+04  2.00760E+01  5.48710E+04 -1.87949E+01  5.47064E+04 -1.74210E+01
  5.45451E+04 -1.11671E+01  5.43412E+04 -1.19641E+01  5.42009E+04  1.29718E+01  5.40246E+04 -1.69761E+01
  5.38230E+04  1.50886E+01  5.36649E+04  1.90068E+01  5.34612E+04  2.00817E+01  5.32971E+04 -4.36619E+00
  5.31182E+04  1.67755E+01  5.29160E+04  4.49728E+00  5.27427E+04 -1.82403E+01  5.25545E+04  1.79925E+01
  5.23861E+04 -1.71300E+01  5.21785E+04  6.24446E+00  5.20066E+04 -1.53832E+01  5.18010E+04 -4.05434E-02
  5.16087E+04  9.70963E+00  5.14139E+04 -1.71306E+01  5.12054E+04  1.79120E+01  5.10215E+04  7.27805E+00
  5.08315E+04 -1.30763E+01  5.06319E+04  9.57869E+00  5.04277E+04  1.98144E+01  5.01908E+04 -1.80665E+00
  5.00072E+04  1.30105E+01  4.98087E+04 -8.39982E+00  4.95915E+04  2.00190E+01  4.93785E+04  1.73995E+01
  4.91614E+04  1.84690E+01  4.89788E+04  8.76744E+00  4.87392E+04 -8.92500E+00  4.85350E+04  1.65069E+01
  4.83363E+04 -9.83169E+00  4.81324E+04 -4.68013E+00  4.79154E+04 -1.33169E+01  4.76915E+04 -1.87674E+01
  4.74906E+04  7.97753E+00  4.72719E+04  1.89868E+01  4.70257E+04 -8.77167E+00  4.68347E+04 -9.93595E+00
  4.65998E+04  1.68378E+01  4.63670E+04 -1.96331E+01  4.61538E+04  7.42000E+00  4.59627E+04 -1.59973E+01
  4.57439E+04  1.01037E+01  4.55150E+04  1.25468E+01  4.52901E+04  1.75777E+01  4.50399E+04 -2.18393E+00
  4.48299E+04 -7.90652E+00  4.45864E+04  1.45393E+01  4.43852E+04  4.38020E+00  4.41296E+04 -6.47651E+00
  4.39330E+04 -1.53496E+01  4.36746E+04  1.79259E+01  4.34816E+04 -1.18171E+01  4.32486E+04  1.14398E+01
  4.30142E+04  7.89722E-01  4.27954E+04  1.34075E+01  4.25552E+04 -8.25020E+00  4.23058E+04  6.91165E-01
  4.20780E+04  6.37005E+00  4.18639E+04 -1.67885E+01  4.16122E+04 -2.01568E+01  4.13866E+04 -8.21413E+00
  4.11765E+04 -1.12733E+01  4.09293E+04  8.95048E+00  4.06736E+04  1.86261E+01  4.04621E+04  1.89000E+00
  4.02176E+04 -1.92688E+01  3.99954E+04 -6.45512E+00  3.97568E+04 -1.36088E+01  3.95020E+04 -1.52005E+01
  3.93067E+04  2.22137E+00  3.90539E+04 -3.07287E+00  3.87978E+04 -1.53682E+01  3.86006E+04 -9.64077E-01
  3.83399E+04 -7.46973E+00  3.81017E+04  1.71166E+01  3.78769E+04  6.77728E+00  3.76618E+04 -1.92390E+01
  3.74172E+04  7.54373E+00  3.71890E+04 -5.04129E+00  3.69558E+04  1.45843E+01  3.66823E+04 -6.73608E-01
  3.64724E+04 -1.36059E+01  3.62375E+04 -1.01325E+01  3.59783E+04 -7.10856E+00  3.57747E+04  1.42498E+00
  3.55481E+04 -2.01299E+01  3.53147E+04  1.60922E+01  3.50516E+04 -4.53991E+00  3.48428E+04  1.85370E+01
  3.45788E+04 -6.09730E+00  3.43377E+04 -2.09138E+01  3.41299E+04 -1.77698E+01  3.38868E+04  7.51731E+00
  3.36518E+04 -1.86938E+01  3.34437E+04 -4.05426E+00  3.31861E+04 -3.54537E+00  3.29492E+04  2.01378E+01
  3.27297E+04  8.91716E+00  3.25026E+04 -1.01162E+01  3.22712E+04  2.41541E+00  3.20298E+04 -7.95717E+00
  3.18130E+04 -9.17283E+00  3.15941E+04 -1.31884E+01  3.13358E+04 -1.68726E+00  3.11270E+04  5.25835E+00
  3.08778E+04 -2.05963E+01  3.06450E+04 -1.54433E+00  3.04518E+04 -1.60158E+01  3.02156E+04  1.35062E+01
  3.00044E+04 -1.10568E+01  2.97767E+04  8.48979E+00  2.95137E+04 -1.27574E+00  2.93013E+04 -1.32529E+01
  2.90873E+04 -3.72949E+00  2.88712E+04 -6.53783E+00  2.86590E+04 -1.66841E+01  2.83977E+04 -1.11290E+01
  2.81770E+04 -6.74098E+00  2.79644E+04  1.81692E+01  2.77440E+04  1.80499E+01  2.75296E+04 -5.86117E+00
  2.72933E+04 -9.05106E+00  2.71126E+04 -5.35983E+00  2.68707E+04  5.39138E+00  2.66567E+04 -1.97074E+01
  2.64251E+04  5.84328E+00  2.62300E+04  3.23048E+00  2.60208E+04  9.33312E-01  2.57797E+04  1.35452E+01
  2.55660E+04 -2.05341E+01  2.53934E+04 -1.27473E+01  2.51804E+04  1.84287E+01  2.49448E+04  8.15326E+00
  2.47604E+04 -1.38506E+01  2.45324E+04 -1.51099E+01  2.43372E+04  4.72621E+00  2.41054E+04  1.10061E+01
  2.39022E+04 -1.90323E+01  2.36836E+04 -2.08546E+01  2.35162E+04 -1.02612E+01  2.32881E+04 -1.35447E+01
  2.30804E+04 -1.39222E+01  2.29018E+04 -2.10429E+01  2.27036E+04  8.15378E+00  2.25027E+04  9.16868E+00
  2.22619E+04 -2.12669E+01  2.20736E+04  3.18637E+00  2.18892E+04 -1.57197E+01  2.17067E+04 -2.19913E+00
  2.15111E+04 -5.02169E+00  2.12896E+04  2.12187E+01  2.10967E+04  5.83865E-01  2.09100E+04  9.68481E+00
  2.06950E+04 -1.17704E+01  2.05234E+04  1.18607E+01  2.03220E+04  1.36188E+01  2.01488E+04 -3.32981E+00
  1.99599E+04 -6.89332E+00  1.97544E+04  1.10784E+01  1.95653E+04  9.56765E+00  1.93813E+04 -1.36573E+01
  1.91995E+04  1.67543E+01  1.90248E+04 -5.71281E+00  1.88519E+04  1.22827E+01  1.86559E+04  2.03422E+01
  1.84945E+04 -2.99300E+00  1.83230E+04 -2.06456E+01  1.81352E+04  3.70906E+00  1.79414E+04  9.84636E+00
  1.77855E+04  2.03521E-01  1.75817E+04  2.07264E+01  1.74106E+04  9.24475E+00  1.72683E+04  1.05648E+01
  1.70938E+04  1.99061E+01  1.68920E+04  5.90240E+00  1.67246E+04 -2.10734E+01  1.65776E+04  2.13939E+01
  1.63990E+04  1.05947E+01  1.62448E+04  1.84101E+01  1.60479E+04 -6.26346E+00  1.59025E+04  7.44366E+00
  1.57515E+04  2.03308E+01  1.55957E+04 -2.01657E+01  1.54183E+04  6.49683E+00  1.52680E+04  1.22441E+01
  1.50878E+04 -1.28218E+01  1.49259E+04  1.37499E+01  1.47678E+04 -9.87327E+00  1.46016E+04  1.42738E+01
  1.44537E+04 -1.84538E+01  1.43292E+04 -3.57667E+00  1.41551E+04  1.42306E+01  1.39996E+04  8.98714E-01
  1.38695E+04  3.67247E+00  1.36999E+04 -5.91207E+00  1.35419E+04 -1.33721E+01  1.33960E+04 -1.58568E+01
  1.32809E+04  1.00808E+01  1.31008E+04 -2.89450E+00  1.29673E+04 -1.44059E+01  1.28309E+04 -8.68106E+00
  1.26899E+04 -1.19805E+01  1.25577E+04  1.77585E+01  1.24102E+04 -2.12206E+01  1.22701E+04 -1.52076E+01
  1.21319E+04  2.11604E+01  1.20139E+04  1.44331E-01  1.18393E+04 -1.99924E+01  1.17064E+04 -1.58558E+01
  1.15742E+04 -1.06892E+01  1.14631E+04  7.23705E+00  1.13089E+04  1.22417E+01  1.11915E+04 -3.97945E+00
  1.10874E+04 -1.75886E+01  1.09581E+04 -8.57763E+00  1.08027E+04  1.80170E+01  1.07014E+04  2.10067E+01
  1.05767E+04  1.13686E+01  1.04581E+04 -1.69922E+01  1.02976E+04  6.83415E+00  1.01801E+04  1.37224E+01
  1.00698E+04 -1.86508E+01  9.95134E+03 -1.42963E+01  9.84295E+03 -6.03021E-01  9.73848E+03 -1.59192E+01
  9.60597E+03 -8.50303E+00  9.47765E+03 -1.52051E+00  9.36289E+03 -1.87700E+01  9.26564E+03  8.60453E+00
  9.16203E+03 -4.91715E+00  9.04982E+03  1.79836E+00  8.93723E+03 -4.29618E+00  8.79611E+03 -2.30740E+00
  8.69648E+03  1.61563E+01  8.60620E+03  8.82492E-02  8.51111E+03 -5.58175E+00  8.39806E+03  6.57936E-01
  8.26202E+03 -3.67557E+00  8.18455E+03 -1.64927E+01  8.06424E+03 -1.15889E+00  7.97600E+03 -1.59433E+01
  7.85663E+03  2.13569E+00  7.77976E+03 -1.17723E+01  7.66206E+03 -1.92510E+01  7.55785E+03  9.64452E+00
  7.45928E+03 -1.31871E+00  7.37288E+03  3.77129E-01  7.28752E+03  9.07232E+00  7.18441E+03  1.59099E+01
  7.11634E+03 -7.64017E+00  7.00997E+03 -7.85241E-01  6.89815E+03 -1.29266E+01  6.83462E+03  8.01768E+00
  6.74700E+03  5.89720E+00  6.66175E+03  1.40515E+01  6.56522E+03 -8.83205E+00  6.49484E+03 -1.32656E+01
  6.38738E+03  1.69870E+01  6.31082E+03 -6.68854E+00  6.20893E+03  9.32076E+00  6.15671E+03  4.15207E+00
  6.04969E+03 -1.01225E+01  5.98132E+03 -2.03110E+01  5.87823E+03  1.93524E+01  5.83110E+03  1.49846E+01
  5.72670E+03  1.57929E+01  5.64915E+03 -1.57792E+00  5.57063E+03 -8.49463E+00  5.51464E+03  4.87851E+00
  5.44454E+03  1.92661E+01  5.36113E+03 -3.92978E+00  5.26727E+03 -1.32343E+01  5.21688E+03  9.12812E+00
  5.13440E+03 -1.83856E+01  5.06790E+03 -1.36920E+01  5.00444E+03  1.45385E+01  4.92738E+03 -2.76540E+00
  4.84646E+03 -1.48214E+00  4.77317E+03 -1.66022E+01  4.70391E+03  6.78988E+00  4.67269E+03 -2.05826E+01
  4.59143E+03 -1.73771E+01  4.51210E+03 -2.46689E+00  4.46493E+03  1.47785E+01  4.41060E+03  1.17029E+01
  4.33965E+03  1.16165E+01  4.27065E+03 -1.27277E+01  4.22115E+03  1.33326E+01  4.14174E+03  9.82961E-01
  4.07737E+03 -8.33454E+00  4.03016E+03 -2.55494E+00  3.95788E+03  9.37385E+00  3.92953E+03  7.07915E+00
  3.83693E+03 -7.43012E+00  3.79292E+03  1.07171E+01  3.72388E+03  7.53241E+00  3.66740E+03  1.59843E+01
  3.63722E+03  1.82845E+01  3.58005E+03  5.76742E+00  3.50760E+03  2.17169E+00  3.46041E+03 -2.10026E+01
  3.41600E+03  1.76974E+01  3.36005E+03  1.22376E+01  3.31368E+03  5.63436E+00  3.28031E+03  7.60699E+00
  3.21869E+03  2.00955E+01  3.18424E+03 -1.29472E+01  3.12381E+03 -2.00428E+01  3.07741E+03 -6.26351E+00
  3.00552E+03 -2.07172E+01  2.97796E+03 -6.65701E+00  2.91868E+03 -1.33521E+01  2.86796E+03 -1.54359E+01
  2.83655E+03 -1.40518E+01  2.79543E+03  1.17848E+01  2.73821E+03 -8.65471E+00  2.71444E+03  1.26892E+01
  2.67813E+03 -1.78017E+01  2.62933E+03 -8.23499E+00  2.59955E+03 -1.50420E+01  2.55753E+03 -3.80176E+00
  2.51588E+03 -6.48205E+00  2.45764E+03  1.37649E+01  2.44098E+03  5.91809E+00  2.38827E+03 -9.61042E+00
  2.33902E+03 -7.47656E+00  2.32350E+03  1.40007E+01  2.27119E+03 -2.60344E+00  2.24983E+03 -1.57990E+00
  2.21700E+03 -1.78149E+01  2.18179E+03 -9.10329E+00  2.14436E+03  1.58457E+01  2.08096E+03 -1.11487E+01
  2.08620E+03 -1.45087E+01  2.02252E+03 -3.85823E+00  2.00900E+03 -5.56566E+00  1.96251E+03  1.38020E+01
  1.95084E+03  6.76709E+00  1.90863E+03 -1.45800E+01  1.85458E+03  7.05588E-01  1.85075E+03 -5.07267E+00
  1.81201E+03 -1.67212E+01  1.79183E+03  3.81647E+00  1.74407E+03 -3.84610E+00  1.70790E+03 -1.51386E+01
  1.67783E+03  9.87208E+00  1.68586E+03  7.27578E+00  1.64040E+03 -4.27480E+00  1.62726E+03  2.33494E+00
  1.58624E+03 -7.01451E+00  1.54152E+03  1.76112E+01  1.52177E+03 -1.17768E+01  1.51404E+03  5.60707E+00
  1.48508E+03 -1.91454E+01  1.43440E+03 -1.77050E+01  1.43472E+03 -1.95429E+01  1.42334E+03  1.55787E+01
  1.38171E+03 -5.38756E+00  1.36738E+03  7.59659E+00  1.34770E+03 -2.17100E+00  1.31181E+03 -2.03844E+01
