 $NMID ID='dataset6', FMTDAT='(8E13.5)'
 TRAMP=1, VOLUME=1 $END
  2.64924E+02  1.01598E+02  4.73170E+02  2.11987E+02  3.23007E+02  3.62842E+02  1.31351E+02  4.31747E+02
 -5.23027E+01  3.88560E+02 -1.74362E+02  2.80425E+02 -2.25834E+02  1.44395E+02 -1.98548E+02  2.08082E+01
 -1.22861E+02 -5.14573E+01 -4.64132E+01 -7.81463E+01  2.64133E+01 -4.70002E+01  5.37981E+01  4.02718E+00
  4.72921E+01  5.41660E+01  1.30340E+01  8.12018E+01 -2.14823E+01  8.88781E+01 -5.71204E+01  7.24086E+01
 -7.53653E+01  4.96651E+01 -8.33464E+01  3.23975E+01 -8.80283E+01  9.80944E+00 -8.14176E+01 -1.99658E+01
 -7.94242E+01 -3.88224E+01 -5.96718E+01 -5.84230E+01 -3.36931E+01 -7.58377E+01 -8.82399E+00 -7.75486E+01
  2.24540E+01 -7.19019E+01  4.27419E+01 -3.78861E+01  5.04166E+01 -7.49526E+00  3.73166E+01  2.28102E+01
  1.01765E+01  4.29528E+01 -2.51292E+01  4.21211E+01 -5.52368E+01  2.42779E+01 -6.16454E+01 -1.15538E+01
 -5.19959E+01 -4.72588E+01 -3.46648E+01 -7.16041E+01  8.18827E+00 -8.38457E+01  3.93225E+01 -8.07151E+01
  6.71736E+01 -5.82656E+01  7.95789E+01 -3.00694E+01  7.82572E+01 -1.77540E+00  7.72910E+01  1.83536E+01
  6.46078E+01  4.03104E+01  4.70056E+01  5.52404E+01  2.83227E+01  6.24134E+01  7.47464E+00  5.97503E+01
 -9.49502E+00  4.57161E+01 -2.63335E+01  3.29737E+01 -3.07062E+01  1.80396E+01 -2.16796E+01  1.66426E+00
 -5.93458E+00 -7.82552E+00  8.62567E+00 -6.83102E+00  1.72986E+01  3.78732E+00  1.84094E+01  3.10364E+01
  1.96021E+00  4.60420E+01 -1.54673E+01  4.96740E+01 -4.57562E+01  4.18520E+01 -5.97826E+01  7.03301E+00
 -6.29605E+01 -1.96669E+01 -4.53125E+01 -4.73568E+01 -9.96576E+00 -7.10909E+01  3.01248E+01 -5.98994E+01
  5.89516E+01 -4.01484E+01  6.72924E+01 -2.00784E+00  6.40237E+01  3.28796E+01  3.37377E+01  5.64890E+01
  1.74112E-01  6.73554E+01 -2.69459E+01  5.61507E+01 -4.21512E+01  4.65220E+01 -5.62712E+01  2.08054E+01
 -4.74615E+01 -1.46099E+00 -4.66797E+01 -2.24618E+01 -2.97475E+01 -2.87332E+01 -1.76936E+01 -3.38547E+01
 -2.62910E+00 -3.10398E+01  7.60519E+00 -2.47409E+01  1.22070E+01 -1.81774E+01  1.72487E+01 -1.58367E+01
  2.06790E+01  2.97816E-01  1.02190E+01  4.91160E+00  1.38240E+00  1.59779E+01 -1.37449E+01  1.09946E+01
 -3.09670E+01  2.89985E+00 -3.15957E+01 -1.55212E+01 -2.04411E+01 -3.63363E+01 -7.44811E+00 -4.83532E+01
  1.80430E+01 -4.82881E+01  3.66647E+01 -3.54548E+01  4.71913E+01 -1.02214E+01  5.30324E+01  1.04430E+01
  2.94342E+01  3.92321E+01  1.33241E+01  4.89447E+01 -1.21249E+01  4.29784E+01 -3.71490E+01  2.18620E+01
 -4.36363E+01 -3.74833E-01 -2.60715E+01 -2.62863E+01 -8.24847E+00 -4.28984E+01  1.58941E+01 -4.52247E+01
  2.91293E+01 -2.87953E+01  4.40187E+01 -1.74946E+01  5.25691E+01  1.32011E+01  4.74882E+01  2.72350E+01
  3.26159E+01  4.38912E+01  9.94251E+00  5.15706E+01 -5.93594E+00  4.87463E+01 -2.52793E+01  4.02949E+01
 -4.19839E+01  3.16666E+01 -4.70048E+01  1.58486E+01 -4.87609E+01 -2.35570E+00 -3.59178E+01 -2.16134E+01
 -2.34657E+01 -3.09486E+01 -1.31189E+01 -3.54459E+01  1.15047E+01 -3.37312E+01  2.40147E+01 -2.47605E+01
  2.34375E+01 -7.40455E+00  2.38448E+01  4.51437E+00  7.27905E+00  1.98584E+01 -7.17625E+00  1.85227E+01
 -1.68653E+01  8.98554E+00 -2.37264E+01 -1.17990E+00 -1.24126E+01 -1.77640E+01 -7.83011E-01 -2.33214E+01
  1.06527E+01 -2.41158E+01  1.98453E+01 -2.20070E+01  3.56831E+01 -7.89989E+00  3.31388E+01  1.41958E+01
  1.52041E+01  2.68112E+01  3.19701E+00  3.36520E+01 -1.10410E+01  3.03081E+01 -2.08724E+01  2.69491E+01
 -2.62135E+01  8.10124E+00 -3.55526E+01 -1.09619E-01 -2.83100E+01 -1.27339E+01 -2.13678E+01 -2.74310E+01
 -7.60730E+00 -3.00632E+01  1.57389E-01 -3.01411E+01  1.47590E+01 -2.98303E+01  2.75688E+01 -1.87994E+01
  2.56353E+01 -7.13119E+00  3.36857E+01  4.02495E+00  2.77194E+01  1.72327E+01  2.06308E+01  2.15618E+01
  1.12863E+01  2.80375E+01 -3.34441E+00  2.84659E+01 -1.02527E+01  1.77194E+01 -1.77000E+01  6.17660E+00
 -7.40608E+00  2.95868E-01 -8.64475E+00  8.64366E-01  1.41567E+00 -2.98334E+00  6.66130E+00 -1.16761E+00
  8.75923E+00  9.17561E+00  4.17582E+00  1.13241E+01 -6.32619E+00  2.15272E+01 -2.12182E+01  1.67308E+01
 -2.47129E+01  1.15019E+01 -2.50825E+01 -5.74091E+00 -2.40833E+01 -1.42376E+01 -1.81875E+01 -2.84721E+01
 -3.75146E+00 -3.20593E+01  4.88100E+00 -2.50869E+01  1.88867E+01 -2.25790E+01  2.43157E+01 -5.68826E+00
  2.36317E+01  5.98217E-01  2.57257E+01  9.27788E+00  1.20601E+01  2.59797E+01  3.37626E+00  2.12104E+01
 -1.70127E+01  1.86949E+01 -2.43997E+01  1.65074E+01 -2.70460E+01  8.93241E-01 -3.23148E+01 -9.83371E+00
 -2.15643E+01 -1.75778E+01 -1.89153E+01 -2.54387E+01 -7.17690E+00 -3.51641E+01  8.75476E+00 -2.61318E+01
  1.66294E+01 -2.74633E+01  2.26641E+01 -1.12543E+01  2.58631E+01 -6.64720E+00  2.16782E+01  2.44671E+00
  1.00286E+01 -1.80434E+00  1.44611E+01 -7.36273E-01  1.01875E+01 -4.26035E+00  6.29750E+00 -4.26606E+00
  1.30958E+01 -6.17498E+00  1.72764E+01  1.28374E+00  1.53213E+01  9.14638E+00  2.26212E+01  8.97372E+00
  2.02328E+01  1.66481E+01  7.28884E+00  2.10915E+01  5.17777E+00  3.05551E+01 -8.48042E+00  2.52953E+01
 -1.13941E+01  2.38073E+01 -1.73537E+01  1.48463E+01 -2.51856E+01  1.02585E+01 -2.71634E+01  3.20454E+00
 -1.98420E+01 -5.79258E+00 -1.62603E+01 -1.03611E+01 -5.83982E+00 -1.80639E+01  2.38814E+00 -1.90973E+01
  4.11413E+00 -7.98292E+00  1.06527E+01 -8.30209E+00  1.17206E+01  2.16299E+00  7.25781E+00  1.00608E+00
 -5.39047E-01  9.96076E+00 -8.78939E-01  7.38796E+00 -8.37661E+00  3.04645E+00 -9.23821E+00  4.28147E+00
 -3.72864E+00 -4.91099E+00 -8.82405E+00 -6.07066E+00 -1.94186E+00 -1.03742E+01  6.54807E+00 -4.15024E+00
  2.88039E+00  5.79234E-02  1.17973E+01 -2.88724E+00  1.12879E+00  8.07800E+00  4.22893E+00  2.39913E+00
 -2.87758E+00  1.00021E+01 -6.68173E+00  1.86197E+00 -7.19096E+00  1.77915E+00 -1.23737E+01 -9.33414E+00
 -3.35897E+00 -1.19496E+01  1.73895E+00 -1.59560E+01  3.57212E+00 -1.62655E+01  7.60923E+00 -1.86949E+01
  1.67981E+01 -9.09845E+00  2.06411E+01 -6.60547E-01  2.39050E+01  9.15118E+00  1.44156E+01  1.46580E+01
  8.15845E+00  1.37214E+01  6.37568E+00  1.33673E+01 -2.07670E-01  2.07092E+01 -1.19626E+01  9.91995E+00
 -1.25133E+01  9.41521E+00 -1.53296E+01  5.24250E+00 -1.16347E+01 -2.92684E+00 -6.51739E+00 -7.62980E+00
  1.27270E+00 -1.20762E+01  4.67865E+00 -1.52707E+00  4.16348E+00 -6.56342E+00  3.26230E+00  9.72409E-01
  4.67102E+00  2.20345E+00 -4.16184E-01  1.12813E+01  2.38182E+00  1.12991E+01 -5.02622E-01  1.00353E+01
 -1.25922E+00 -1.64215E+00 -8.38727E+00  3.06906E+00 -1.95782E+00 -2.41229E+00 -1.40968E+00 -4.12242E+00
 -4.59151E+00  6.37547E-01 -2.00597E+00 -2.31093E-01  2.18225E+00  9.28812E+00  1.71427E+00  5.01772E+00
 -7.94320E+00  5.84877E+00 -4.42979E+00  2.67254E+00 -1.13539E+01  4.98311E+00 -1.47320E+01  3.26910E+00
 -1.19382E+01 -3.08611E+00 -7.77462E+00 -1.32272E+01 -7.84497E+00 -1.79393E+01 -5.56720E+00 -1.67088E+01
  8.58845E+00 -8.60093E+00  1.03368E+01 -1.36280E+01  7.93413E+00 -8.92833E+00  9.31789E+00  2.79381E+00
  4.51481E+00  3.84140E+00 -5.53002E-01  2.96850E+00 -3.16889E+00  8.42016E+00 -5.99944E+00 -7.76618E-01
 -4.47430E+00  3.10896E+00 -7.10136E+00  8.35890E-01  9.56225E-02 -4.71541E+00 -2.21223E+00 -5.05806E-01
  6.19207E+00 -6.15469E+00  7.28409E+00 -3.68299E+00  5.03148E+00  6.23500E+00  9.56314E+00  4.25361E+00
  6.12659E+00  1.09330E+01  1.19399E+00  9.15965E+00 -6.46571E+00  3.54349E+00 -8.15523E-01  4.59717E+00
 -7.10095E+00 -8.75160E-02 -4.15590E+00  3.69611E+00 -2.41832E+00 -6.70935E+00  1.61194E+00 -6.00391E+00
 -9.75421E-01 -2.60266E+00  2.90625E+00 -8.90999E-01  5.24661E+00 -3.91954E+00  5.66944E+00  2.42190E+00
  5.92971E+00  7.26596E+00 -2.30370E-01  9.54378E+00 -6.33793E+00  6.40215E+00 -3.75667E+00  4.96812E+00
 -4.71276E+00  1.52116E+00 -1.33200E+01  4.34232E-01 -6.58150E+00 -8.89062E+00 -9.51772E+00 -1.20069E+01
 -6.63850E+00 -6.74304E+00  6.14440E+00 -1.14762E+01 -3.16710E-01 -8.49462E+00  9.31233E+00  5.52466E-01
  1.07738E+01 -1.82225E+00  1.37013E+00  3.38688E+00  5.16798E+00  1.61920E+00 -1.62942E+00  1.57625E+00
  1.84950E+00  1.31830E+00 -3.63436E+00  9.86853E-01 -7.83320E+00 -1.07037E+00 -2.67668E-01  9.93170E-01
  6.96151E-01 -5.59133E+00  1.65489E+00 -4.90017E+00 -5.57834E+00 -3.18626E+00  4.28596E+00  1.63409E+00
  4.93710E+00 -4.00337E+00 -2.78087E+00  3.16980E+00 -2.11469E+00  3.10313E+00  1.91808E+00 -6.81486E-01
 -2.53985E+00  3.59486E-01 -5.93067E-02  2.09092E+00 -6.35268E+00 -3.97897E+00 -1.69761E-01 -8.31419E+00
  3.53953E+00 -3.50311E+00  6.32776E+00 -4.97523E+00  8.85601E+00 -2.81207E+00  9.89038E+00 -2.99570E+00
  3.12500E+00  1.07659E+00  6.06325E-01  4.30652E+00  7.00375E+00  7.74758E+00  1.60688E+00  8.33570E+00
 -2.76605E+00  4.93689E-01  7.89918E-01  1.88643E+00  1.13102E+00  1.56953E+00 -4.78526E+00  3.24502E+00
  2.19311E+00 -4.11782E+00  2.17692E+00 -1.54283E+00 -3.55218E+00  4.24008E+00 -7.13958E-01 -2.20180E+00
  8.29325E-01  1.49631E+00 -4.95477E+00 -3.30622E+00  2.17644E-01  5.87414E+00 -5.54880E-01  1.45271E+00
 -7.71110E-01  5.20032E+00  2.41716E+00  5.59706E-01 -4.62248E+00  2.96243E+00  2.09574E+00 -5.32260E+00
  2.91190E+00 -4.91215E+00  4.14336E+00 -3.98268E+00 -1.18425E+00 -2.94807E+00 -1.76299E+00 -1.71906E+00
  6.31967E+00  6.77814E-01 -1.63155E+00  4.85047E+00  1.55616E+00  3.02087E+00  2.49980E+00  5.20086E+00
 -2.85159E+00 -3.83698E+00 -3.96173E+00 -1.28219E+00 -3.60542E+00  1.14193E+00 -4.85280E-01 -2.98046E+00
  4.14229E+00 -8.45793E+00  8.23284E-01 -1.63427E+00  5.74427E+00 -4.66103E+00  9.14400E+00 -7.71669E+00
  9.38032E+00 -5.90514E+00  9.56829E+00  9.57783E-01  2.34727E+00  6.16532E-02  1.04654E+00  7.71905E+00
 -9.23713E-01  4.94404E+00 -3.70321E+00  1.99870E+00 -9.23506E-01  7.22951E+00 -4.97721E+00  1.61850E+00
  3.91501E+00 -1.19550E+00  1.24989E+00  2.49405E+00  1.82398E+00 -5.58181E-01  3.54119E+00  4.59903E+00
  4.62152E+00  2.11745E+00 -1.80386E+00 -2.23907E+00 -2.49599E+00  5.48362E+00  5.81625E-01  2.48346E+00
  1.86289E+00  5.14813E+00 -2.65924E+00  1.55267E+00 -5.93655E+00  2.10806E+00 -6.01008E+00 -3.94585E-01
