 $NMID ID='dataset2', FMTDAT='(8E13.5)'
 TRAMP=1, VOLUME=1 $END
  2.66710E+02  1.09137E+02  4.69048E+02  2.12647E+02  3.20420E+02  3.64750E+02  1.33541E+02  4.21309E+02
 -4.54456E+01  3.80550E+02 -1.73972E+02  2.77312E+02 -2.13251E+02  1.37301E+02 -1.88035E+02  1.79840E+01
 -1.18394E+02 -4.92139E+01 -4.43294E+01 -7.43979E+01  2.36276E+01 -4.51040E+01  4.90341E+01  3.91212E+00
  4.54353E+01  4.90901E+01  1.35511E+01  8.10678E+01 -2.41717E+01  8.03299E+01 -5.61631E+01  7.34947E+01
 -6.91437E+01  5.19503E+01 -8.46369E+01  2.35216E+01 -8.06175E+01  4.01905E+00 -8.12627E+01 -1.71052E+01
 -7.48056E+01 -3.85181E+01 -5.65827E+01 -5.76241E+01 -2.99041E+01 -7.12320E+01 -3.77279E+00 -6.85795E+01
  2.48266E+01 -6.28799E+01  4.09759E+01 -3.40831E+01  4.68280E+01 -7.96578E+00  4.02012E+01  1.88286E+01
  9.28067E+00  4.01274E+01 -1.79590E+01  4.01005E+01 -4.58305E+01  1.98658E+01 -5.56417E+01 -1.04386E+01
 -4.91421E+01 -4.03125E+01 -3.09720E+01 -6.93069E+01  3.78062E+00 -7.77907E+01  3.37582E+01 -6.98994E+01
  5.13841E+01 -4.87268E+01  7.00054E+01 -2.51578E+01  6.68386E+01 -1.79842E+00  6.30970E+01  1.46870E+01
  5.09579E+01  3.59182E+01  3.49416E+01  4.28876E+01  2.25996E+01  5.09406E+01  8.30304E+00  4.63973E+01
 -9.04974E+00  4.51674E+01 -1.70539E+01  2.91558E+01 -2.47954E+01  1.14803E+01 -1.44394E+01  3.74752E+00
 -3.30648E+00 -1.02658E+01  1.09520E+01 -5.94959E+00  2.07405E+01  5.52354E+00  1.20724E+01  2.45115E+01
  5.28142E+00  4.01849E+01 -1.42299E+01  3.98110E+01 -3.77637E+01  3.50232E+01 -5.08115E+01  1.01606E+01
 -4.89458E+01 -2.09973E+01 -3.06046E+01 -4.28783E+01 -6.84953E+00 -5.17442E+01  2.27215E+01 -4.88009E+01
  4.56858E+01 -2.77752E+01  5.50248E+01 -5.57762E+00  5.07399E+01  2.97622E+01  2.84452E+01  4.88766E+01
 -5.86417E-01  5.61510E+01 -2.47266E+01  4.84593E+01 -3.72096E+01  2.86602E+01 -4.16283E+01  1.51770E+01
 -4.43670E+01 -7.91571E-02 -2.83650E+01 -1.24527E+01 -2.12112E+01 -1.75360E+01 -9.58185E+00 -2.42677E+01
 -2.84182E+00 -2.51283E+01  4.48147E+00 -1.71702E+01  9.59544E+00 -1.70860E+01  1.35606E+01 -9.95974E+00
  9.25111E+00  3.08659E+00  3.87120E+00  8.38526E+00 -3.98743E+00  1.14320E+01 -1.00948E+01  7.86602E+00
 -2.14736E+01 -1.27354E+00 -2.80758E+01 -1.02463E+01 -2.10615E+01 -2.80810E+01 -4.35180E+00 -3.24304E+01
  8.62754E+00 -3.34682E+01  3.29687E+01 -3.01506E+01  3.66501E+01 -1.35567E+01  3.36130E+01  1.34745E+01
  2.83522E+01  2.29581E+01  3.82287E+00  3.72675E+01 -1.52460E+01  3.22049E+01 -2.23943E+01  1.35497E+01
 -3.34123E+01  1.11439E+00 -2.27200E+01 -1.70845E+01 -5.51964E+00 -2.60131E+01  9.29478E+00 -3.43027E+01
  2.62216E+01 -2.17227E+01  3.49657E+01 -1.19282E+01  3.55840E+01  4.32429E+00  3.17311E+01  2.52961E+01
  2.48203E+01  2.84290E+01  3.77368E+00  3.49574E+01 -9.17221E+00  3.81753E+01 -2.04390E+01  2.99780E+01
 -2.95728E+01  2.60966E+01 -3.11615E+01  1.33616E+01 -3.08032E+01  1.38860E+00 -3.17762E+01 -1.84710E+01
 -2.08634E+01 -1.96947E+01 -4.11457E+00 -2.55819E+01  7.05880E+00 -2.42303E+01  1.09492E+01 -1.21601E+01
  1.93039E+01 -7.36915E+00  9.78558E+00  5.03132E+00  1.76147E+00  1.09190E+01 -2.33369E+00  1.07674E+01
 -1.15567E+01  7.06947E+00 -1.21436E+01 -5.93919E-01 -8.94742E+00 -1.16538E+01 -1.74011E+00 -2.15032E+01
  5.74161E+00 -1.93026E+01  1.52816E+01 -1.55512E+01  2.27292E+01  5.57933E-01  1.90088E+01  1.13132E+01
  9.99466E+00  1.94832E+01  2.70898E-01  2.52187E+01 -3.42677E+00  2.32179E+01 -1.30311E+01  1.99712E+01
 -2.00117E+01  1.00548E+01 -2.12806E+01 -6.25490E-01 -1.97973E+01 -1.08692E+01 -1.30242E+01 -1.55947E+01
 -3.00609E+00 -2.13606E+01  2.91440E+00 -2.51741E+01  1.03922E+01 -2.25070E+01  1.47346E+01 -1.95706E+01
  1.90609E+01 -6.61372E+00  2.69764E+01  4.26020E+00  1.61671E+01  1.07129E+01  1.78225E+01  1.63111E+01
  4.00935E+00  2.07491E+01  2.47985E-02  1.93374E+01 -1.07994E+01  1.06825E+01 -1.22986E+01  9.62818E+00
 -8.95110E+00 -1.84840E+00 -3.87345E+00 -4.06356E+00  4.09220E+00 -9.76046E-01  2.07302E+00  3.19479E+00
  9.05793E-01  2.50700E+00 -5.60144E-02  7.02409E+00 -8.89236E+00  1.38850E+01 -1.56995E+01  1.14745E+01
 -1.74507E+01  2.21958E+00 -2.28135E+01 -4.62263E+00 -1.38583E+01 -7.91934E+00 -1.39414E+01 -1.44646E+01
 -3.41733E+00 -2.20264E+01  2.55066E+00 -2.36526E+01  1.22251E+01 -1.57204E+01  1.81669E+01 -7.85518E+00
  1.47981E+01 -6.35774E-01  1.58293E+01  7.52784E+00  1.10660E+01  1.55320E+01  3.24160E+00  1.83853E+01
 -9.29831E+00  1.31914E+01 -1.29460E+01  1.33273E+01 -2.40996E+01  6.38147E+00 -2.15921E+01 -7.23063E+00
 -1.61639E+01 -1.24028E+01 -7.30463E+00 -2.09752E+01 -6.15837E+00 -2.41336E+01  4.77812E+00 -2.33462E+01
  1.30454E+01 -1.46297E+01  1.37244E+01 -6.91102E+00  1.62235E+01 -6.25769E+00  1.38993E+01 -2.16668E+00
  7.06722E+00  3.63056E+00  5.68170E+00 -1.57901E+00  6.93160E+00 -3.29793E+00  5.24362E+00 -2.93744E+00
  8.87388E+00  1.49475E+00  1.23218E+01 -1.57911E+00  1.66319E+01  6.93538E+00  1.04618E+01  1.10356E+01
  1.50992E+01  1.50705E+01  1.00367E+01  1.88691E+01  4.24565E+00  1.50954E+01 -6.69475E+00  1.52656E+01
 -1.17141E+01  1.77175E+01 -1.32015E+01  1.58290E+01 -1.52405E+01  5.68921E+00 -1.75036E+01  3.61556E+00
 -1.58266E+01 -4.01891E+00 -1.22693E+01 -1.25497E+01 -5.74858E+00 -1.42103E+01  4.26843E+00 -1.31551E+01
  4.34175E+00 -1.27334E+01  9.85665E+00 -1.53353E+00  4.91265E+00 -2.90694E+00  4.41984E+00  2.03039E+00
  2.72453E+00  2.76130E+00 -4.64369E+00  2.04241E+00 -6.74891E+00  6.08777E+00 -7.07346E+00  3.40065E+00
 -9.84015E+00 -3.81155E+00 -1.27355E+00 -5.86764E+00  3.87937E+00 -1.04553E+01  4.61653E+00 -4.58451E+00
  4.66090E+00 -1.34004E+00  1.04859E+00 -1.02713E+00 -2.20144E-02  7.63185E+00 -3.64237E+00  5.38022E+00
 -4.20351E+00  4.30142E+00 -8.28301E+00  5.01925E+00 -9.27225E+00 -2.00045E+00 -6.69544E+00 -7.86707E+00
 -8.41730E+00 -1.20520E+01 -2.73692E+00 -1.05768E+01  4.29225E+00 -1.31637E+01  8.52649E+00 -1.15887E+01
  9.04253E+00 -6.35945E+00  1.43725E+01 -4.97286E+00  1.73200E+01 -4.86596E-01  1.19182E+01  1.25869E+01
  7.74682E+00  1.43550E+01 -9.16916E-01  1.06208E+01 -4.36551E+00  1.08325E+01 -6.27890E+00  5.67315E+00
 -8.50439E+00  3.85757E+00 -5.97163E+00 -2.12268E+00 -8.64083E+00 -1.59544E+00 -4.40489E+00 -3.27061E+00
  1.30032E+00 -8.87737E+00  1.49077E-01 -2.42842E+00  9.97534E-01 -5.90882E-01  2.13240E+00  1.03157E+00
  2.06879E+00  2.78934E+00  5.02559E+00  3.09045E+00 -2.10543E+00  4.82416E+00  1.36102E+00  2.01420E+00
  3.59888E-01  3.93558E+00  3.56275E-01  1.16808E+00 -1.22635E-01 -1.11964E+00  7.14295E-01  3.28997E+00
 -2.50375E+00 -1.49186E+00  1.97618E+00  2.43380E+00 -4.12529E+00  6.36970E+00 -3.23586E+00  1.83597E+00
 -3.78404E+00  9.52090E+00 -9.14439E+00  1.61989E+00 -9.47724E+00  2.28622E+00 -1.42370E+01  3.14694E+00
 -1.01481E+01 -4.98102E+00 -1.22997E+01 -1.16316E+01 -3.26104E+00 -1.25163E+01 -3.32370E+00 -8.28068E+00
  2.56809E+00 -1.22804E+01  6.94013E+00 -4.99769E+00  1.07481E+01 -3.51007E+00  4.44021E+00  8.01882E-01
  8.55301E+00  2.32787E+00  3.81372E+00  6.15696E-01  2.64611E+00  8.18858E+00 -9.24585E-01 -9.58598E-01
 -3.83671E+00 -3.57749E+00 -5.09964E+00  1.40310E+00  9.29503E-01 -1.55645E+00  1.80330E-01 -5.51927E+00
  5.43327E+00 -4.63272E+00  4.98421E+00 -3.67635E+00  2.38109E+00  1.07967E+00  8.65318E+00  2.64518E-01
  3.63524E+00  4.20082E+00  1.16422E+00  7.32441E+00  1.67659E+00  9.00729E+00 -1.92942E+00  6.57136E+00
 -7.35324E+00  4.36341E+00 -7.75589E+00  1.14687E+00 -3.99024E+00 -4.68287E+00  3.04644E+00 -4.18958E+00
 -1.58529E+00 -7.15036E+00  6.21311E+00 -3.84536E-01  9.34031E+00  5.66014E-01  7.30090E+00 -9.76015E-01
  4.00388E+00  5.55153E+00  1.69836E+00  1.02570E+01 -5.85451E+00  8.91616E+00 -7.12477E+00  8.31693E+00
 -6.75399E+00  5.30894E+00 -7.06773E+00 -3.23354E+00 -6.27195E+00 -3.28783E+00 -9.49849E+00 -8.65699E+00
  6.79898E-01 -1.26466E+01  5.47807E+00 -7.72811E+00  1.85383E+00 -8.27076E+00  4.95609E+00 -4.76772E+00
  6.94504E+00  1.01919E+00  9.59029E+00  1.27867E+00  8.29302E+00  9.91659E-01  1.28032E+00  1.61723E+00
  1.91510E+00  2.11482E+00 -6.96806E-01  6.84170E-01 -1.18296E+00  4.70859E-01 -1.76260E+00 -2.95556E+00
 -4.77164E+00 -4.04251E+00 -2.96237E+00  2.45341E+00 -2.37239E+00 -4.95433E+00 -2.93711E+00 -4.53000E+00
 -3.32557E+00 -1.90243E+00 -4.50236E+00  4.67964E+00 -2.49550E+00  3.33132E+00  6.17776E-01  2.51381E+00
 -2.94282E+00 -2.21071E+00 -1.14926E+00 -3.80266E+00 -3.70118E+00 -7.33068E+00 -2.88216E+00 -8.65845E+00
 -2.94015E+00 -8.96971E+00  6.14710E+00 -4.41719E+00  3.04529E+00 -7.12967E+00  3.61568E+00 -3.86398E+00
  4.02079E+00 -1.42806E+00  2.64653E+00  8.02432E-01  3.73681E+00  3.78702E+00  1.72732E+00  2.12293E+00
 -4.45542E+00  7.87354E+00  7.28960E-01  5.91345E-01 -7.87393E-01  4.04362E-01 -5.52676E+00 -1.68592E+00
  8.34258E-01 -1.58134E+00 -1.83668E+00 -2.22526E+00  1.55527E+00  3.57208E+00 -1.71892E+00 -3.18142E+00
  2.25957E+00 -1.50948E-01  1.61798E+00  4.31656E+00 -6.63387E-01 -2.02277E-01 -9.27549E-01  1.06941E+00
 -3.24221E-01  1.89774E+00 -4.05694E+00  2.60124E+00  1.21380E+00 -2.73756E+00  1.88779E+00 -1.45636E+00
 -1.12966E+00 -3.31692E+00 -1.84059E+00 -7.13632E+00 -1.17951E+00 -5.15811E+00  2.63917E+00  1.25366E+00
 -2.20570E+00  7.31434E-01 -1.03523E+00  4.14234E+00 -3.85187E+00  1.38922E-02 -1.08236E+00  6.13735E+00
 -1.39512E+00 -3.11335E+00 -6.94196E+00 -2.16337E-01 -6.25291E+00 -2.32169E+00 -6.48170E+00 -6.44836E+00
 -5.44507E-01 -3.10343E+00  4.39268E+00 -1.04904E+01  1.63401E+00 -5.35380E+00  8.78686E+00 -5.62601E+00
  9.20576E+00 -4.35969E+00  6.97022E+00 -3.29808E+00  5.17520E+00 -1.29712E+00  5.14564E+00  1.87310E+00
  1.25393E+00  4.45463E+00 -2.71199E+00  1.66211E+00  1.38719E+00  6.73012E+00 -9.87846E-01  5.91338E+00
 -2.77923E+00  3.55012E+00  2.84731E+00  1.13788E+00 -2.35329E+00  3.90009E+00  2.16341E+00  3.57853E+00
 -1.10653E+00  1.82365E+00 -2.19712E+00 -9.44120E-01 -4.49690E+00  2.93501E+00 -1.21162E+00  2.05776E+00
 -3.56075E+00  1.95206E+00 -2.59885E+00 -3.06886E+00 -8.37436E+00 -4.50595E+00 -5.72758E+00 -6.33425E+00
