 $NMID ID='dataset28', FMTDAT='(8E13.5)'
 TRAMP=1, VOLUME=1 $END
  5.21789E+04  1.63505E+03  5.42265E+04  3.63297E+03  5.11030E+04  5.87873E+03  4.71562E+04  6.10061E+03
  4.39072E+04  4.31430E+03  4.22190E+04  1.18543E+03  4.26089E+04 -1.96831E+03  4.45458E+04 -4.10573E+03
  4.70170E+04 -4.58546E+03  4.91736E+04 -3.40230E+03  4.99997E+04 -1.27490E+03  4.94049E+04  7.98319E+02
  4.77009E+04  2.20275E+03  4.57055E+04  2.33814E+03  4.41734E+04  1.39271E+03  4.35867E+04  3.22840E+01
  4.39116E+04 -1.13018E+03  4.48293E+04 -1.54067E+03  4.56098E+04 -1.09553E+03  4.58140E+04 -9.30043E+01
  4.52761E+04  1.00472E+03  4.40876E+04  1.55165E+03  4.27886E+04  1.29385E+03  4.18712E+04  4.59511E+02
  4.15618E+04 -7.30806E+02  4.20820E+04 -1.68698E+03  4.30359E+04 -2.06837E+03  4.40555E+04 -1.62444E+03
  4.45850E+04 -6.30642E+02  4.44153E+04  5.81103E+02  4.35958E+04  1.64409E+03  4.23697E+04  2.10197E+03
  4.10469E+04  1.87022E+03  4.00820E+04  1.15903E+03  3.96341E+04  1.37160E+02  3.97926E+04 -8.21333E+02
  4.03515E+04 -1.50152E+03  4.11245E+04 -1.56566E+03  4.17264E+04 -1.17394E+03  4.21045E+04 -4.85365E+02
  4.19356E+04  3.64532E+02  4.12641E+04  1.11632E+03  4.04277E+04  1.47000E+03  3.94515E+04  1.36176E+03
  3.86367E+04  9.15523E+02  3.82305E+04  1.96134E+02  3.81910E+04 -5.15650E+02  3.85314E+04 -1.03552E+03
  3.90755E+04 -1.23613E+03  3.95740E+04 -9.08531E+02  3.97641E+04 -2.99464E+02  3.95137E+04  4.31043E+02
  3.88870E+04  9.70747E+02  3.79898E+04  1.13241E+03  3.70897E+04  8.31367E+02  3.65543E+04  2.07910E+02
  3.64987E+04 -5.26533E+02  3.68398E+04 -1.05228E+03  3.73272E+04 -1.15975E+03  3.77755E+04 -7.74768E+02
  3.78241E+04 -1.16218E+02  3.73780E+04  5.67440E+02  3.66345E+04  8.99303E+02  3.57783E+04  8.49476E+02
  3.50328E+04  4.02065E+02  3.47992E+04 -3.05878E+02  3.50323E+04 -9.17012E+02  3.55789E+04 -1.13841E+03
  3.60814E+04 -8.87137E+02  3.62413E+04 -2.42845E+02  3.59640E+04  4.56066E+02  3.52766E+04  1.00823E+03
  3.43579E+04  1.02457E+03  3.36202E+04  6.69048E+02  3.32023E+04 -5.54010E+01  3.33733E+04 -7.39834E+02
  3.38422E+04 -1.07790E+03  3.43738E+04 -9.38713E+02  3.47479E+04 -3.60452E+02  3.45938E+04  3.32759E+02
  3.40367E+04  1.00951E+03  3.31169E+04  1.21154E+03  3.22508E+04  9.15121E+02  3.17650E+04  2.23784E+02
  3.16816E+04 -5.65774E+02  3.21153E+04 -1.11712E+03  3.27524E+04 -1.21898E+03  3.33106E+04 -8.42050E+02
  3.34884E+04 -1.47574E+02  3.31861E+04  6.21633E+02  3.25569E+04  1.18087E+03  3.16386E+04  1.27704E+03
  3.08506E+04  9.04603E+02  3.04118E+04  3.19562E+02  3.03279E+04 -3.64852E+02  3.06292E+04 -8.23220E+02
  3.10595E+04 -9.82510E+02  3.13786E+04 -6.69904E+02  3.15381E+04 -2.30026E+02  3.13050E+04  1.88228E+02
  3.09128E+04  4.54713E+02  3.03509E+04  5.22809E+02  2.99496E+04  4.25571E+02  2.96270E+04  1.03781E+02
  2.95495E+04 -1.70791E+02  2.96542E+04 -2.44339E+02  2.96987E+04 -2.58133E+02  2.96632E+04 -5.28580E+01
  2.94964E+04  8.46710E+01  2.91471E+04  1.83406E+02  2.88627E+04  1.72958E+02  2.86157E+04  3.01274E+01
  2.84766E+04 -1.70458E+02  2.84401E+04 -3.33371E+02  2.85092E+04 -3.77300E+02  2.85890E+04 -3.34513E+02
  2.86298E+04 -1.36633E+02  2.84701E+04  1.23990E+02  2.82608E+04  2.78399E+02  2.78925E+04  4.35610E+02
  2.75451E+04  3.80857E+02  2.71908E+04  3.09822E+02  2.69221E+04  6.39206E+01  2.68566E+04 -1.73443E+02
  2.68647E+04 -3.21207E+02  2.69454E+04 -4.23851E+02  2.70503E+04 -3.66008E+02  2.71020E+04 -2.06777E+02
  2.69937E+04  2.51381E+01  2.68563E+04  2.41447E+02  2.65371E+04  3.22884E+02  2.61978E+04  3.30007E+02
  2.59456E+04  2.47337E+02  2.57209E+04  1.22702E+02  2.56752E+04 -1.06683E+02  2.56530E+04 -2.06946E+02
  2.57117E+04 -2.43513E+02  2.57259E+04 -1.83598E+02  2.57155E+04 -1.02692E+02  2.56022E+04  2.70164E+01
  2.53805E+04  1.38568E+02  2.51717E+04  2.16668E+02  2.49186E+04  1.92937E+02  2.46795E+04  9.78247E+01
  2.45675E+04  5.19742E+00  2.45563E+04 -5.52903E+01  2.44766E+04 -9.62172E+01  2.44430E+04 -1.10928E+02
  2.44112E+04 -1.85832E+01  2.41931E+04  5.53849E+01  2.40125E+04  1.06773E+02  2.38309E+04  9.67778E+01
  2.37469E+04  3.52868E+01  2.35889E+04 -6.98208E+01  2.35491E+04 -1.06498E+02  2.35393E+04 -1.36132E+02
  2.35393E+04 -6.21200E+01  2.34412E+04 -4.05118E+01  2.32889E+04  7.65885E+01  2.31048E+04  1.12688E+02
  2.29059E+04  9.80222E+01  2.27089E+04  1.19000E+02  2.25404E+04  1.75010E+01  2.24609E+04 -1.03429E+02
  2.24379E+04 -1.56774E+02  2.24002E+04 -1.17702E+02  2.24271E+04 -9.05466E+01  2.23592E+04 -3.75548E+01
  2.21470E+04  5.65972E+01  2.20335E+04  1.50552E+02  2.18353E+04  1.04318E+02  2.16930E+04  3.81661E+01
  2.15250E+04  9.11024E+00  2.14529E+04 -1.15608E+02  2.14191E+04 -1.25182E+02  2.13978E+04 -7.84729E+01
  2.13076E+04 -7.21509E+01  2.13061E+04  1.00025E+01  2.11358E+04  6.06137E+01  2.10094E+04  5.07333E+01
  2.09075E+04  7.17038E+01  2.07176E+04  9.09307E+01  2.06671E+04  2.29398E+01  2.05508E+04 -2.14204E+01
  2.04865E+04 -4.04155E+01  2.04070E+04 -4.67065E+01  2.02971E+04  2.08527E+01  2.02492E+04  4.83046E+01
  2.00940E+04  5.15231E+01  2.00289E+04  1.00271E+02  1.98576E+04  3.65394E+01  1.98128E+04  1.18524E+01
  1.96672E+04 -2.62785E-01  1.96295E+04  1.90889E+01  1.95077E+04 -6.05888E+01  1.94268E+04 -2.79282E+01
  1.93882E+04  3.33743E+00  1.93053E+04 -3.93852E+01  1.92313E+04 -2.79548E+01  1.90657E+04 -3.66456E+01
  1.89580E+04 -1.83170E+01  1.88751E+04  3.40478E+01  1.88433E+04  1.43725E+01  1.87106E+04 -2.37511E+00
  1.86612E+04 -1.69401E+01  1.85791E+04 -3.82746E+01  1.85071E+04 -1.32189E+01  1.84275E+04  2.48278E+01
  1.83308E+04  3.75365E+01  1.81972E+04  6.05539E+01  1.80720E+04  1.71481E+01  1.80152E+04 -3.45231E+01
  1.79235E+04  1.55425E+01  1.78092E+04 -4.48142E+01  1.77441E+04 -2.89263E+01  1.77120E+04 -6.86794E+01
  1.76093E+04 -5.77689E+01  1.75770E+04  5.81370E+00  1.74646E+04 -2.93492E+01  1.74169E+04  2.28408E+01
  1.73118E+04 -1.47268E+00  1.72281E+04 -2.94402E+00  1.71323E+04  2.55553E+01  1.70050E+04  2.52468E+01
  1.69910E+04 -5.01472E+01  1.69060E+04 -3.28609E+01  1.68373E+04 -7.30159E+00  1.67759E+04  1.62486E+01
  1.66498E+04  1.36476E+01  1.65430E+04 -1.27674E+01  1.64973E+04  5.60450E+00  1.64316E+04  2.78380E+01
  1.63203E+04  5.15458E+01  1.62703E+04 -3.03041E+01  1.61393E+04  1.25678E+00  1.60967E+04  3.49410E+01
  1.60367E+04 -2.16286E+01  1.59174E+04 -2.67070E+00  1.59109E+04  1.90450E+00  1.57786E+04  3.20798E+01
  1.57615E+04 -1.30717E+01  1.56850E+04  5.87829E+00  1.55407E+04 -3.30671E+01  1.54682E+04 -4.39814E+01
  1.54373E+04  3.45218E+01  1.53670E+04 -4.38233E+01  1.53026E+04 -1.10022E+01  1.52168E+04 -6.89181E+00
  1.51331E+04  3.68399E+01  1.50748E+04 -2.31805E+01  1.49948E+04 -6.43128E+00  1.49094E+04 -1.03818E+01
  1.48523E+04 -2.25662E+01  1.48253E+04 -2.73194E+01  1.47177E+04 -5.03146E+01  1.46740E+04 -1.86900E+01
  1.46221E+04  2.67978E+01  1.45600E+04 -1.86784E+00  1.44459E+04 -2.01252E+01  1.43844E+04  3.40101E+01
  1.43240E+04  3.47611E+01  1.42136E+04 -4.67455E+00  1.41651E+04 -2.84529E+01  1.40670E+04 -7.37050E+00
  1.40451E+04 -1.20034E+01  1.39533E+04 -4.11197E+01  1.39246E+04 -3.39679E+01  1.38434E+04 -2.83768E+01
  1.37987E+04 -4.34996E+01  1.37325E+04  6.19303E+00  1.36993E+04  4.37574E+01  1.35850E+04  5.91008E+01
  1.35456E+04 -2.37232E+01  1.34851E+04 -1.80079E+01  1.33564E+04  2.25742E+00  1.32943E+04  1.08493E+00
  1.32638E+04  4.27235E+01  1.31913E+04 -2.73231E+01  1.31537E+04 -3.00789E+01  1.31042E+04  4.47865E+01
  1.30320E+04 -5.26661E+00  1.29540E+04  1.64351E+01  1.28762E+04 -2.54429E+01  1.28373E+04 -8.55485E+00
  1.27784E+04  4.09029E+01  1.26809E+04  1.20484E+01  1.26442E+04 -3.00855E+01  1.26240E+04  3.61826E+01
  1.25333E+04  1.85947E+01  1.24857E+04 -3.72030E+01  1.24677E+04 -2.30828E+01  1.23241E+04  1.43718E+00
  1.23287E+04 -3.35001E+01  1.22417E+04 -2.21960E+01  1.22083E+04 -3.12287E+01  1.21192E+04 -1.54104E+01
  1.21303E+04  2.89998E+01  1.20469E+04  3.20638E+01  1.20225E+04  3.24010E+01  1.18928E+04  5.88093E+01
  1.18776E+04  5.01888E+01  1.17525E+04  5.29340E+01  1.17534E+04  9.43630E+00  1.16516E+04 -2.19273E+01
  1.16451E+04 -2.73249E+01  1.15324E+04  1.37617E+01  1.15343E+04 -2.67736E+00  1.14864E+04  2.40644E+00
  1.14260E+04 -4.51734E+00  1.13649E+04  1.57392E+00  1.13203E+04  6.45394E+00  1.12438E+04 -1.14008E+01
  1.11731E+04 -4.74399E+00  1.11274E+04  4.51374E+00  1.11025E+04 -4.61192E+01  1.10792E+04 -2.60953E+01
  1.09967E+04  5.70943E+00  1.09654E+04 -1.36600E+01  1.09047E+04  1.67703E+01  1.08505E+04  4.36206E+01
  1.07601E+04  1.80297E+01  1.07224E+04  2.29803E+01  1.06609E+04 -6.23534E+00  1.06580E+04  2.80399E+01
  1.05778E+04  4.32290E+01  1.05771E+04  2.69203E+01  1.05054E+04  2.15494E+01  1.04489E+04  2.71702E+00
  1.04285E+04  5.07834E+01  1.03454E+04 -9.96739E-01  1.02791E+04  1.30371E+01  1.02518E+04 -1.15845E+01
  1.01816E+04  1.50334E+01  1.01565E+04 -2.96030E+01  1.00711E+04 -3.81886E+01  1.00235E+04 -4.23808E+00
  1.00322E+04 -1.64936E+01  9.93372E+03 -3.56909E+01  9.94389E+03 -1.52556E+01  9.89734E+03 -2.64040E+01
  9.84150E+03 -7.17732E+00  9.77174E+03 -2.21680E+01  9.70476E+03 -5.55589E+00  9.69325E+03 -4.88241E+00
  9.66038E+03 -1.13197E+00  9.56285E+03  5.74644E+00  9.52122E+03  4.96766E+01  9.45801E+03 -2.39736E+01
  9.47768E+03  3.24467E+01  9.43338E+03  5.14528E+00  9.31633E+03  1.75158E+01  9.32615E+03  9.58550E+00
  9.24097E+03 -3.76147E+01  9.27261E+03  1.58181E+01  9.24532E+03  1.84500E+01  9.20711E+03 -7.29793E+00
  9.13400E+03 -2.18926E+01  9.06216E+03  2.61639E+00  9.05930E+03  4.46104E+01  8.95808E+03  1.17467E+01
  8.90190E+03  3.05649E+01  8.88332E+03  2.02571E+01  8.83313E+03 -2.37933E+01  8.85133E+03  1.95465E+01
  8.82161E+03  2.62612E+01  8.73491E+03  4.43882E+01  8.66722E+03  3.56874E+01  8.63195E+03 -4.14870E+00
  8.56140E+03  4.75455E+01  8.58826E+03  2.43841E+01  8.47203E+03  2.40754E+01  8.47162E+03 -1.88400E+01
  8.46455E+03  3.36292E+01  8.38439E+03  2.42503E+00  8.35073E+03 -3.79366E+00  8.30348E+03 -1.98976E-01
