 $NMID ID='dataset16', FMTDAT='(8E13.5)'
 TRAMP=1, VOLUME=1 $END
  2.66555E+02  1.16442E+02  4.64470E+02  2.16705E+02  3.09180E+02  3.62570E+02  1.44327E+02  4.34075E+02
 -4.70019E+01  3.85415E+02 -1.85743E+02  2.88872E+02 -2.22882E+02  1.48466E+02 -2.00538E+02  2.80853E+01
 -1.24653E+02 -5.58316E+01 -4.51044E+01 -7.01246E+01  3.60416E+01 -5.26851E+01  4.85071E+01  1.21699E+01
  4.42615E+01  4.00739E+01  2.88878E+01  6.84228E+01 -3.71780E+01  8.30787E+01 -4.77876E+01  7.96271E+01
 -6.11700E+01  4.37885E+01 -7.34937E+01  3.65478E+01 -7.65465E+01  5.83283E+00 -7.22719E+01 -1.76802E+01
 -6.06241E+01 -2.20683E+01 -5.44666E+01 -6.62571E+01 -3.61031E+01 -8.21638E+01 -4.11710E-03 -6.79487E+01
  3.20546E+01 -5.45389E+01  3.40886E+01 -3.61700E+01  3.72495E+01 -2.09733E+01  3.76888E+01  2.04096E+01
  1.40802E+01  5.47511E+01 -1.02696E+01  5.40583E+01 -6.21261E+01  3.00649E+01 -7.59715E+01 -1.43452E+01
 -6.07669E+01 -3.77107E+01 -2.96195E+01 -7.23706E+01 -8.44628E+00 -7.65022E+01  4.58482E+01 -8.04613E+01
  4.33989E+01 -7.04692E+01  6.59102E+01 -4.45040E+01  6.90896E+01 -1.15214E+01  8.16453E+01  1.30501E+01
  6.18449E+01  3.04777E+01  5.88307E+01  3.36113E+01  3.81252E+01  4.90007E+01  1.42324E+01  5.34747E+01
  4.17306E+00  4.08077E+01 -2.53305E+01  4.27780E+01 -1.58991E+01  2.04404E+01 -2.36388E+01 -6.87635E+00
 -5.44774E+00 -8.59006E+00  1.15800E+01 -9.78954E+00  2.03613E+01  1.63542E+01  1.52182E+01  1.58748E+01
  1.25652E+01  4.76364E+01 -1.74599E+01  6.41809E+01 -3.55812E+01  5.12166E+01 -5.16995E+01  1.02545E+01
 -6.77985E+01 -1.64644E+01 -6.27312E+01 -4.50566E+01 -1.73779E+01 -6.45992E+01  2.85297E+01 -5.12067E+01
  4.72188E+01 -4.00660E+01  5.93788E+01 -2.06700E+01  4.26031E+01  4.20843E+01  2.21862E+01  4.57532E+01
 -4.80338E+00  5.10753E+01 -3.95879E+01  5.75489E+01 -3.22363E+01  3.36853E+01 -5.05443E+01  1.21569E+01
 -5.22658E+01 -9.00744E+00 -4.85590E+01 -8.52502E+00 -8.88942E+00 -3.74895E+01 -7.73871E+00 -1.66638E+01
 -5.64066E+00 -1.40381E+01  6.01093E+00 -3.81147E+01  1.94095E+01 -1.80406E+01  2.19544E+01 -1.56143E+01
  4.87389E+00  1.29307E+00  5.74528E+00  7.04572E+00  1.25781E+01  2.23392E+01 -2.23472E+00  1.85239E+01
 -3.04528E+01 -6.06904E+00 -3.18578E+01 -2.80427E+00 -3.55965E+01 -1.73922E+01 -1.85331E+01 -4.00960E+01
  2.34112E+01 -3.49101E+01  3.73798E+01 -3.00567E+01  4.36557E+01 -1.43241E+01  4.06555E+01  1.90704E+01
  2.48675E+01  3.26522E+01  5.40382E-02  3.30842E+01 -2.21069E+01  4.22212E+01 -3.12125E+01  1.71087E+01
 -3.95926E+01  7.71368E+00 -3.41759E+01 -1.62466E+01 -7.63699E+00 -4.84158E+01  2.69063E+00 -4.44981E+01
  2.89073E+01 -1.49066E+01  3.66595E+01 -1.34263E+01  3.97409E+01 -2.41439E+00  4.29460E+01  1.97267E+01
  3.60313E+01  4.84420E+01  1.24241E+01  6.22431E+01 -1.55722E+01  4.28795E+01 -1.01117E+01  2.67722E+01
 -3.00993E+01  2.52813E+01 -3.75780E+01  2.02081E+01 -3.47855E+01 -6.19210E+00 -5.31172E+01 -2.04252E+01
 -3.74454E+01 -3.71150E+01 -2.36338E+01 -5.00476E+01  1.76168E+01 -4.80133E+01  2.94154E+01 -3.81533E+01
  2.78544E+01 -1.35734E+01  3.06286E+01  2.07349E+01  1.83730E+00  1.60883E+01 -6.86652E-01  4.18405E+00
 -2.08756E+00  1.22301E+01 -3.47466E+01  1.91196E-01 -2.37175E+01 -4.16062E+00  5.29420E+00 -1.51664E+01
  1.94365E+01 -3.26400E+01  2.18784E+01 -7.45036E+00  1.62815E+01 -1.34406E+01  1.81608E+01  1.54683E+01
  2.83142E+01  2.59952E+01  7.00576E+00  2.60326E+01 -1.24842E+01  3.51876E+01 -3.35443E+01  1.34329E+01
 -4.07816E+01 -5.48841E+00 -4.02910E+01 -1.33387E+01 -2.27113E+01 -1.12095E+01 -2.84116E+01 -2.24860E+01
 -1.71757E+01 -2.05452E+01  1.09110E+01 -3.14043E+01  2.25660E+01 -1.72632E+01  2.61574E+01 -1.36948E+01
  4.49945E+01 -1.36360E+01  5.01714E+01 -8.60312E+00  2.39620E+01  2.84464E+01  1.38585E+01  1.36922E+01
  3.66228E+00  2.21527E+01  1.33420E+01  4.30505E+01  2.22064E+00  3.96828E+01 -1.55906E+01  2.86262E+01
 -3.14157E+01  2.00550E+00 -1.29684E+01  4.50576E+00  1.09469E+00 -3.29422E+00 -4.43033E+00 -1.18298E+01
 -7.47596E+00  1.60821E+01  9.23774E+00  1.14465E+01 -1.41113E+01  1.37076E+01 -1.59919E+01  8.66654E+00
 -1.23306E+01  6.77272E+00 -1.77522E+01  1.14716E+00 -2.91190E+01 -5.01170E+00  4.26866E-02 -2.44926E+01
  1.99163E+00 -3.78580E+01  1.19297E+01 -2.35404E+01  2.34279E+01 -8.62730E+00  1.34376E+01 -3.07863E+00
  3.22318E+01  1.22974E+00  1.49627E+01  1.79115E+01  2.32378E+00  3.69400E+01  1.00322E+01  2.58376E+01
 -1.25347E+01  4.15957E+01 -3.96862E+01  8.19473E+00 -3.56572E+01 -1.89177E+00 -2.57683E+01 -4.63990E-01
 -2.86084E+01 -2.06271E+01 -1.29759E+01 -3.98845E+01 -1.07252E+01 -3.42281E+01  4.50740E+00 -4.49144E+01
  1.20437E+01 -2.16216E+01  2.75625E+01 -1.41400E+01  3.14469E+01 -7.71317E+00  7.20407E+00  6.07831E+00
  1.66949E+01  5.36987E+00  2.82567E+01 -8.56706E+00  2.31990E+01 -1.26140E+01  1.17418E+00 -1.16336E+01
  2.94627E+01  1.17562E+01  1.62348E+01 -1.92535E+00  1.66945E+01  8.69595E+00  3.15391E+01  6.43107E+00
  2.90977E+01  2.29496E+01  1.17012E+01  2.67911E+01 -3.30408E+00  2.90359E+01 -2.19535E+00  2.86995E+01
 -2.28849E+01  3.22777E+01 -3.06502E+01  2.82993E+01 -1.94662E+01  2.26924E+01 -2.77145E+01 -8.95995E-01
 -2.74820E+01 -1.58965E+01 -1.82691E+01 -1.74553E+01 -1.22934E+01 -8.80355E+00  1.33706E+01 -1.67661E+01
  1.07935E+01 -1.59309E+01  1.40204E+01 -3.21468E-01  4.38059E+00 -1.02579E+01  5.87081E+00 -4.52234E+00
 -3.41454E+00  1.59948E+01  8.43561E+00  4.31903E+00 -5.38506E+00 -6.16300E-01 -1.48979E+01 -4.29564E-01
 -9.67078E+00 -9.50867E+00 -8.65149E-01 -2.92407E+00 -1.03540E+01 -1.66625E+01  7.32746E+00  2.59057E+00
  4.76388E+00  5.39790E+00 -7.17993E+00 -1.08579E+01  5.82301E+00 -7.59491E+00 -1.48560E+00  1.41878E+01
 -1.33322E+01 -3.45338E+00 -8.91122E+00  5.77614E+00 -1.40515E+01 -8.83559E+00 -2.57922E+01 -2.35967E+01
 -1.48130E+01 -1.22642E+01 -1.93034E+00 -3.26797E+01  1.14477E+01 -3.40865E+01  1.48870E+01 -3.23687E+01
  2.99278E+01 -1.01183E+01  2.26745E+01  7.23241E+00  3.88762E+01 -6.47480E+00  1.48370E+01  2.33129E+01
  6.24326E+00  2.74250E+01  1.55132E+01  1.34400E+01 -1.64385E+01  1.53112E+01 -1.66611E+01  1.67912E+01
 -2.27341E+01  8.00749E+00 -6.18345E+00  1.57946E+01 -1.25954E+01  8.96083E+00 -1.77848E+01 -1.17203E+01
 -1.98382E+00 -2.10458E+01  1.98144E-02 -8.46137E+00  8.50043E+00  8.21387E+00 -3.38857E+00 -1.04985E+01
  9.34420E+00 -8.77349E+00  8.54863E+00  1.05999E+01  1.10828E+01 -6.78656E+00 -1.23472E+01  2.96135E+00
 -1.25710E+01  1.11812E+01  2.52978E+00  3.50480E+00  8.84798E+00 -8.07521E+00  1.15137E+01 -5.63613E+00
  2.93276E-01  3.05364E+00  1.45994E+01  7.96984E+00 -1.34126E+01 -3.73706E+00 -1.25459E+01  2.22530E+01
 -1.83366E+01  6.93861E+00  3.93243E+00  1.98989E+01 -1.09797E+01  1.91849E+01 -1.30885E+00  1.12622E+00
 -1.99052E+01 -1.77923E+01 -2.09551E+01 -1.42248E+01 -3.68324E+00 -2.97097E+01 -9.90859E+00 -2.08822E+01
 -7.10579E-02 -4.77026E+00  4.80578E+00 -2.46181E+01  1.91953E+00 -3.12008E+00  3.11375E+00  4.79161E-01
  1.48321E+01 -5.31393E+00  1.81926E+01  2.22507E+01  1.08856E+01  9.88625E+00 -1.37522E+01 -9.20886E+00
 -3.84146E+00  2.19554E+00  7.45131E+00 -1.75367E+01  6.48798E+00 -4.26247E+00  2.44379E+00 -9.07637E-01
  2.28532E+00 -1.33639E+01  1.75566E+01 -7.24711E+00  9.58692E+00 -1.01101E+00 -4.65749E+00  1.37321E+01
  1.31062E+01 -1.75974E+00  1.66279E+01  1.82754E+01  5.20178E+00  2.15129E+01 -7.08887E+00  1.27710E+01
 -1.48166E+01 -3.50333E+00 -7.46025E+00 -4.13763E+00 -1.16536E+01  5.06093E-01  2.18483E+00 -4.22013E+00
  9.83368E+00  1.02061E+00  1.42362E+01 -1.56282E+01  1.55025E+01  7.82164E+00 -5.67143E+00  3.46056E+00
 -7.28500E+00  1.93738E+01  1.00765E+01  2.32682E+00 -1.44091E+01  1.27541E+01 -2.17115E+01  1.74745E+01
 -2.14006E+00 -2.30843E-01 -2.95031E+01  4.01517E+00 -2.05270E+01 -2.26273E+01  2.68433E+00 -2.04553E+01
 -1.08617E+01 -5.08174E+00 -1.61070E+00 -2.84433E+01  1.48473E+01 -1.71704E+01  2.24511E+00  7.30874E+00
  2.20960E+01  3.21249E+00  2.30280E+01 -2.21485E+00  1.38788E+01  6.63265E+00  1.01109E+01  2.25440E+01
 -4.63834E+00  2.11960E+00  6.10372E+00  7.11170E+00  4.98431E+00 -1.92173E+00 -1.26546E+01 -2.98767E-01
 -1.84264E+01  2.14558E+00 -1.65953E+01 -5.27076E+00  6.16770E+00  4.69389E-01 -7.82712E+00 -1.47611E+01
 -7.86548E+00  7.73264E+00 -1.46480E+00 -1.18344E+01 -2.87580E+00  1.28318E+01 -2.84206E+00  5.91244E+00
 -2.58818E+00  7.94195E+00 -5.51580E+00 -1.29066E+01 -1.74127E+01 -8.42690E+00 -1.13654E+01 -5.52528E+00
  1.22534E+01 -6.16005E+00 -2.95501E+00 -1.42841E-01  7.41669E+00 -5.36641E-01  1.46135E+01 -9.13520E+00
  2.09878E+01  9.97010E+00  5.86436E+00  1.43256E+01 -6.13197E+00  1.32879E+01 -6.07575E+00  2.71795E+01
  4.60601E+00  1.96903E+01 -1.30296E+01  1.44171E+01  7.80522E+00  6.17854E+00 -1.59776E+01 -1.02001E+01
  2.88896E+00 -1.04032E+01 -1.89971E+00 -3.45402E+00 -7.70708E+00  3.29665E+00  6.31648E+00  3.92342E+00
  1.12003E+00  6.07592E+00  8.93083E+00  1.13802E+01 -8.71894E+00  1.04383E+01 -1.31537E+01  6.69007E+00
 -5.61114E+00 -7.64977E+00  9.68694E+00 -6.52412E+00  1.05014E+01  1.20548E+01  5.50389E+00 -8.84091E+00
 -1.62817E+01 -1.84136E+01 -5.30807E+00  1.94579E+00 -3.11440E-01  5.21802E+00 -4.71875E+00  2.78802E+00
  2.10365E+00 -5.13204E+00 -1.68291E+00  4.62365E+00 -8.61941E+00 -6.65131E+00 -5.51448E-01  6.21003E+00
 -1.40470E+01 -8.07667E+00 -4.63260E+00  1.20336E+01 -2.23479E+01  6.31903E+00 -1.23583E+01 -1.67259E+01
 -1.15981E+01 -1.04317E+01  6.63656E+00 -1.03629E+01  9.96931E+00 -1.59243E+00  2.35799E+01 -1.29449E+00
  1.81826E+01 -8.68074E+00  2.23224E+01  1.02465E+01  2.34476E+01  1.72732E+01  2.22939E+01  8.59119E+00
  1.94162E+01  2.76461E+00  1.26200E+01  7.12146E+00  8.27045E+00  3.57215E+00  1.02088E+01 -5.34770E+00
 -4.76597E+00  1.43495E+01  1.24272E+01  7.08670E+00  1.36570E+01  8.88109E+00 -9.95736E+00 -1.69858E-01
 -4.21017E+00 -7.05602E+00 -4.12410E+00 -3.30699E-01 -2.29710E+00  3.38947E+00 -5.84564E+00  1.84527E+01
 -5.46584E+00  2.38552E+00 -1.42986E+01  1.49422E+01 -6.80958E-01 -1.27897E+01 -2.18765E+01 -1.30934E+01
