 $NMID ID='dataset25', FMTDAT='(8E13.5)'
 TRAMP=1, VOLUME=1 $END
  5.10049E+04  1.73317E+02  5.10517E+04  4.83587E+02  5.05030E+04  6.94619E+02  4.98313E+04  7.49058E+02
  4.91965E+04  5.75574E+02  4.87417E+04  2.64665E+02  4.85972E+04 -1.64017E+02  4.85590E+04 -3.83463E+02
  4.85834E+04 -4.65610E+02  4.86280E+04 -3.17774E+02  4.85949E+04 -1.37842E+02  4.82871E+04  7.70480E+01
  4.79343E+04  2.31726E+02  4.74962E+04  2.84424E+02  4.70825E+04  1.92842E+02  4.68240E+04  3.43056E+01
  4.66522E+04 -1.02141E+02  4.65815E+04 -1.93760E+02  4.64827E+04 -1.30770E+02  4.63197E+04 -1.06832E+01
  4.60255E+04  1.20639E+02  4.57439E+04  1.61838E+02  4.54053E+04  1.36857E+02  4.51080E+04  3.60903E+01
  4.49409E+04 -7.97209E+01  4.47932E+04 -2.06052E+02  4.47320E+04 -2.16191E+02  4.46022E+04 -1.92796E+02
  4.44945E+04 -7.51618E+01  4.42785E+04  4.45921E+01  4.39877E+04  1.54756E+02  4.36435E+04  2.16216E+02
  4.32953E+04  2.66671E+02  4.30388E+04  1.42551E+02  4.28189E+04  2.15369E+01  4.26784E+04 -1.68228E+02
  4.25855E+04 -1.85187E+02  4.24500E+04 -2.45752E+02  4.23436E+04 -2.08748E+02  4.22390E+04 -6.65662E+01
  4.20681E+04  7.83492E+01  4.18110E+04  1.03542E+02  4.15132E+04  1.86785E+02  4.11878E+04  1.61058E+02
  4.09352E+04  1.10959E+02  4.07734E+04  2.96894E+01  4.06159E+04 -5.69236E+01  4.04658E+04 -1.24827E+02
  4.03077E+04 -7.46213E+01  4.02442E+04 -1.05925E+02  4.00359E+04  2.77766E+00  3.98503E+04  9.91270E+01
  3.95424E+04  1.50707E+02  3.92756E+04  1.57135E+02  3.90161E+04  1.11233E+02  3.88429E+04 -2.91166E+01
  3.87227E+04 -1.07168E+02  3.85708E+04 -1.31161E+02  3.85017E+04 -1.34279E+02  3.83499E+04 -1.12745E+02
  3.82387E+04 -1.75742E+01  3.80231E+04  5.70776E+01  3.77492E+04  8.33808E+01  3.75153E+04  9.98169E+01
  3.72865E+04  2.79073E+01  3.70425E+04 -8.92205E+00  3.69317E+04 -6.85755E+01  3.68795E+04 -1.56328E+02
  3.67668E+04 -6.90770E+01  3.66179E+04  9.31124E+00  3.64701E+04  2.95324E+01  3.61759E+04  1.03836E+02
  3.59626E+04  1.54931E+02  3.56795E+04  6.55699E+01  3.54921E+04  1.33008E+01  3.53523E+04 -6.02740E+01
  3.52874E+04 -1.03216E+02  3.51935E+04 -1.24800E+02  3.50970E+04 -4.24683E+01  3.48915E+04  6.64892E+01
  3.46958E+04  1.16642E+02  3.44895E+04  8.36676E+01  3.41973E+04  6.97907E+01  3.40097E+04 -1.80735E+01
  3.38720E+04 -1.16645E+02  3.38325E+04 -1.81387E+02  3.37540E+04 -1.57044E+02  3.36526E+04 -1.06478E+02
  3.35243E+04 -1.92449E+01  3.33614E+04  1.13895E+02  3.31532E+04  1.00257E+02  3.29202E+04  1.43081E+02
  3.27033E+04  1.13344E+02  3.24622E+04  7.46085E+01  3.23369E+04 -4.55943E+01  3.22665E+04 -9.83001E+01
  3.21798E+04 -9.50857E+01  3.20502E+04 -3.27911E+01  3.19204E+04 -2.74121E+01  3.17370E+04  4.85075E+01
  3.15487E+04  9.74598E+01  3.13902E+04  1.10526E+02  3.12106E+04  2.84532E+01  3.10258E+04  3.20811E+01
  3.09347E+04 -1.11280E+01  3.07716E+04 -4.10857E+01  3.07014E+04 -4.01546E+01  3.05576E+04 -2.88014E+01
  3.03821E+04  5.61221E+00  3.02330E+04 -2.21581E+01  3.00335E+04  4.72939E+01  2.98781E+04 -1.79811E+01
  2.97996E+04 -6.61540E+01  2.96723E+04 -5.34160E+01  2.95722E+04 -7.35820E+01  2.94010E+04 -7.59018E+01
  2.92869E+04 -4.94197E+01  2.91682E+04 -1.87459E+01  2.89831E+04  1.48278E+01  2.88575E+04  7.62420E+01
  2.87064E+04  4.27176E+01  2.85466E+04  4.29507E+01  2.83610E+04  4.74074E+00  2.82820E+04 -3.54578E+01
  2.81510E+04 -3.15725E+01  2.79803E+04 -4.52024E+01  2.79520E+04 -6.39806E+01  2.78142E+04 -4.20301E+00
  2.77046E+04  3.87567E+01  2.75463E+04  2.38829E+01  2.74050E+04  1.87548E+01  2.72445E+04  2.82249E+01
  2.70629E+04  3.04954E+01  2.70101E+04 -3.03559E+01  2.68908E+04 -5.32239E+01  2.67362E+04 -5.17853E+01
  2.66400E+04 -5.53344E+01  2.64987E+04  6.79828E-02  2.64028E+04 -1.05237E+00  2.62892E+04  4.36198E+01
  2.61355E+04  2.53108E+01  2.60312E+04  4.03564E+01  2.58859E+04 -9.86873E-01  2.57198E+04  4.27719E+01
  2.56320E+04  8.89566E+00  2.54724E+04  3.01945E+01  2.53512E+04  1.11472E+01  2.52829E+04  4.01431E+01
  2.51491E+04  1.51392E+01  2.50116E+04  8.61271E+00  2.49444E+04  2.94801E+01  2.47564E+04 -2.23507E+01
  2.46941E+04  2.29458E+01  2.45935E+04 -3.57603E+01  2.44628E+04 -3.78343E+00  2.43665E+04 -2.40029E+01
  2.42877E+04 -1.17095E+01  2.41617E+04 -1.08879E+01  2.40476E+04  6.32101E+00  2.39008E+04  3.96705E+01
  2.37769E+04  1.07506E+01  2.36731E+04 -2.66486E+01  2.35769E+04  9.33046E+00  2.34473E+04 -3.39739E+01
  2.33390E+04 -4.27964E+01  2.32358E+04 -1.52378E+01  2.31029E+04  1.60260E+01  2.29609E+04  1.95279E+01
  2.29035E+04  7.64136E+00  2.27700E+04  5.66465E+00  2.26443E+04 -4.92295E+00  2.25091E+04  3.67340E+01
  2.24686E+04 -1.67161E+01  2.23645E+04 -1.91474E+01  2.22896E+04 -1.46156E+01  2.21347E+04 -6.00890E+01
  2.20416E+04 -5.45950E+01  2.19628E+04  9.64366E+00  2.18644E+04  2.04327E+01  2.17489E+04  4.59261E+01
  2.16991E+04  2.92240E+01  2.15733E+04  7.30251E+00  2.14717E+04  3.98056E+01  2.13250E+04  1.43905E+00
  2.12399E+04  3.45124E+01  2.11308E+04  2.14128E+01  2.10012E+04  2.00017E+01  2.09035E+04  4.63594E+01
  2.08165E+04  1.57457E+01  2.07419E+04  2.13265E+01  2.06024E+04  3.44188E+01  2.04869E+04 -1.13773E+00
  2.04439E+04 -5.38121E+00  2.03518E+04  2.98069E+01  2.02313E+04 -3.45863E+00  2.01443E+04 -3.38050E+01
  2.00148E+04 -2.12335E+01  1.99937E+04 -1.03043E+01  1.99160E+04  1.53391E+01  1.98107E+04 -2.57328E+00
  1.97165E+04 -1.34430E+01  1.96080E+04  7.92492E-02  1.94982E+04 -2.03477E+01  1.93869E+04  3.75419E+01
  1.93143E+04  2.93515E+01  1.92572E+04 -2.71168E+01  1.91179E+04 -2.69572E+01  1.90958E+04  4.31519E+01
  1.89500E+04 -2.20446E+01  1.88761E+04 -1.39748E+01  1.87568E+04  1.55599E+01  1.87199E+04  4.94710E+01
  1.85556E+04  3.33932E+01  1.84643E+04 -4.02064E+01  1.84294E+04  1.14440E+01  1.82971E+04  2.24235E+01
  1.82872E+04 -2.21817E+00  1.81757E+04 -1.70079E+01  1.80904E+04 -4.11691E+01  1.80172E+04 -2.05135E+01
  1.79502E+04 -4.75439E+01  1.78557E+04  1.72320E+01  1.77227E+04 -3.45615E+01  1.76476E+04  2.43411E+01
  1.76082E+04  3.28412E+01  1.74877E+04  4.13628E+01  1.74561E+04 -2.37631E+01  1.73571E+04 -1.15903E+01
  1.72642E+04  5.43934E-02  1.71973E+04  5.97299E+00  1.70881E+04 -2.41467E+01  1.70216E+04 -6.70683E+00
  1.69568E+04  8.23651E+00  1.68713E+04  2.88435E+01  1.67611E+04 -2.13632E+01  1.66403E+04 -2.31698E+01
  1.66491E+04 -2.44368E+01  1.65770E+04 -4.57043E+01  1.64457E+04  1.81015E+01  1.63902E+04 -4.04111E+01
  1.62790E+04 -1.65832E-01  1.62182E+04 -1.09541E+01  1.61634E+04  1.51770E+01  1.60645E+04  1.10216E+01
  1.60115E+04 -2.23573E+01  1.59393E+04 -2.88789E+01  1.58134E+04 -1.22193E+01  1.57705E+04 -3.78557E+01
  1.56717E+04 -7.15126E+00  1.56737E+04  2.33726E+01  1.55459E+04  7.85155E+00  1.54989E+04  5.30440E+01
  1.54323E+04  2.82829E+01  1.53062E+04 -1.40162E+01  1.52562E+04  1.02194E+00  1.52099E+04 -8.81293E+00
  1.51364E+04  2.21345E+01  1.50195E+04 -5.32329E+01  1.49729E+04 -1.63702E+01  1.48821E+04 -3.69508E+01
  1.48448E+04  3.20117E+00  1.47711E+04 -2.18867E+01  1.46653E+04 -3.23123E+01  1.45963E+04  2.82632E+01
  1.45897E+04 -3.12275E+01  1.45126E+04 -2.61521E+01  1.44696E+04 -5.18973E+01  1.43632E+04  5.38587E+00
  1.43455E+04  8.41486E+00  1.42403E+04  2.99337E+01  1.41525E+04  4.91868E+01  1.40955E+04 -8.19168E+00
  1.40414E+04 -5.45927E+00  1.39107E+04  8.82161E+00  1.38840E+04  1.56225E+01  1.37946E+04 -1.62789E+01
  1.37185E+04  3.30351E+01  1.37239E+04 -2.94342E+01  1.36122E+04 -1.33486E+01  1.35296E+04  2.72870E+01
  1.34895E+04  2.11924E+01  1.34099E+04  4.20360E+01  1.34040E+04 -2.83633E+01  1.33053E+04  2.98966E+01
  1.32258E+04  1.44160E+01  1.31915E+04 -3.33942E+01  1.31364E+04 -2.24608E+01  1.30764E+04 -3.27977E+00
  1.30347E+04  2.12396E+01  1.29757E+04  2.34447E+01  1.28798E+04  3.35023E+01  1.28491E+04  3.24848E+01
  1.27178E+04 -1.29749E+01  1.27040E+04  1.78094E+01  1.26870E+04  1.22407E+01  1.25741E+04  1.50621E+01
  1.24995E+04 -8.96489E+00  1.25219E+04 -2.77563E+01  1.23970E+04  2.61297E+01  1.23145E+04 -2.43213E+01
  1.22868E+04  1.99087E+01  1.22128E+04  1.73076E+01  1.21716E+04  4.72256E+00  1.20640E+04 -3.13541E+01
  1.20392E+04 -2.29791E+01  1.19798E+04  2.67442E+01  1.19756E+04  1.76240E+01  1.18629E+04 -7.80006E+00
  1.18546E+04 -4.02743E+01  1.17633E+04  2.16349E+01  1.17515E+04  3.87390E+01  1.16384E+04  8.90168E+00
  1.15696E+04  6.14803E+00  1.15758E+04  2.56085E+01  1.15074E+04  1.15786E+01  1.14700E+04 -4.10254E+01
  1.14522E+04  6.43481E+00  1.13510E+04  3.41925E+01  1.13113E+04 -1.32343E+01  1.12432E+04  3.79926E+01
  1.12054E+04  1.35000E+01  1.11023E+04 -2.70541E+01  1.11099E+04  2.71664E+00  1.10358E+04 -8.14253E+00
  1.09535E+04 -1.96225E+01  1.09107E+04  3.73781E+01  1.08535E+04 -2.17759E+01  1.08559E+04 -1.26658E+01
  1.07746E+04  1.11763E+01  1.07095E+04  1.44173E+01  1.06424E+04 -8.28969E-01  1.05883E+04  1.79064E+01
  1.05992E+04 -4.14725E+01  1.04773E+04 -2.68977E+01  1.04995E+04 -2.58301E+01  1.04472E+04 -4.34218E+01
  1.03820E+04 -1.27678E+01  1.03577E+04 -3.13130E+01  1.02523E+04 -3.92342E+01  1.02634E+04  2.52543E+00
  1.02206E+04  3.62257E+01  1.01338E+04 -3.07877E+00  1.00606E+04 -3.77382E+00  1.00384E+04 -2.08285E+01
  9.96965E+03  1.09513E+01  9.90062E+03  7.03893E+00  9.88135E+03 -2.57786E+01  9.82181E+03 -1.93003E+01
  9.81524E+03  7.10260E+00  9.77180E+03 -4.18213E+01  9.65560E+03 -1.90502E+01  9.66469E+03 -1.33741E+01
  9.64294E+03 -3.92712E+01  9.57119E+03 -2.22960E+01  9.54911E+03 -3.23622E+01  9.50462E+03  1.36362E+01
  9.44940E+03 -3.82799E+00  9.39801E+03  1.80647E+01  9.36678E+03  4.56830E+01  9.27848E+03  6.30184E+00
  9.23423E+03 -3.66878E+01  9.24763E+03  1.13096E+01  9.17888E+03  1.57898E+01  9.10500E+03 -6.03554E+00
  9.13205E+03  1.28602E+01  9.03948E+03  1.78864E+01  9.03131E+03 -5.68752E+00  8.99026E+03  3.74220E+01
  8.87675E+03  3.92733E+01  8.87938E+03  1.88484E+01  8.77816E+03  3.33042E+01  8.75472E+03  2.15508E+01
  8.72481E+03 -3.57810E+00  8.67946E+03 -7.86175E+00  8.68678E+03  3.09996E+01  8.66230E+03 -9.97590E+00
