 $NMID ID='dataset21', FMTDAT='(8E13.5)'
 TRAMP=1, VOLUME=1 $END
  2.58686E+02  1.01893E+02  4.69663E+02  2.10261E+02  3.22148E+02  3.60674E+02  1.36901E+02  4.17008E+02
 -3.97375E+01  3.78396E+02 -1.64298E+02  2.75150E+02 -2.06494E+02  1.43900E+02 -1.86438E+02  2.57998E+01
 -1.15816E+02 -4.40691E+01 -3.97982E+01 -6.13389E+01  1.72454E+01 -3.13199E+01  4.03231E+01  1.58468E+01
  3.32612E+01  5.64108E+01  2.37796E+00  8.21491E+01 -3.73029E+01  8.45869E+01 -6.48009E+01  6.44684E+01
 -8.07039E+01  4.12396E+01 -8.52911E+01  1.78530E+01 -8.11389E+01 -5.28432E+00 -7.61859E+01 -2.19847E+01
 -6.80094E+01 -3.95144E+01 -5.48631E+01 -5.85678E+01 -3.27740E+01 -7.04345E+01 -2.87730E+00 -7.39990E+01
  2.39700E+01 -6.39604E+01  4.41333E+01 -3.99006E+01  5.19856E+01 -6.97579E+00  4.03793E+01  2.17914E+01
  1.40338E+01  4.03795E+01 -1.59272E+01  3.85378E+01 -4.01962E+01  2.43099E+01 -5.42386E+01 -4.73564E+00
 -4.90417E+01 -3.83134E+01 -2.79777E+01 -6.18130E+01  2.08058E+00 -6.86196E+01  3.00333E+01 -6.83639E+01
  5.07699E+01 -5.07231E+01  6.52930E+01 -2.87057E+01  6.55770E+01 -7.40584E+00  6.13141E+01  1.34067E+01
  5.19426E+01  2.71124E+01  3.75696E+01  4.11035E+01  2.68615E+01  4.46465E+01  9.65649E+00  4.58475E+01
 -7.53763E+00  4.42912E+01 -1.63571E+01  3.22364E+01 -1.92337E+01  1.85349E+01 -1.79228E+01  1.98741E+00
 -2.55630E+00 -4.73255E+00  8.82981E+00 -1.12736E+00  1.97503E+01  1.17616E+01  1.77024E+01  2.67959E+01
  4.05298E+00  4.28803E+01 -1.76817E+01  4.60551E+01 -4.23874E+01  3.93601E+01 -5.85716E+01  1.21202E+01
 -6.04827E+01 -1.95175E+01 -4.49681E+01 -4.47469E+01 -1.45070E+01 -6.37666E+01  1.85290E+01 -6.15160E+01
  4.45217E+01 -3.78276E+01  5.69519E+01 -8.02820E+00  4.92333E+01  1.98952E+01  3.18467E+01  4.30921E+01
  7.25503E+00  5.02382E+01 -1.36806E+01  4.25941E+01 -3.21353E+01  2.73354E+01 -3.48301E+01  1.33436E+01
 -3.35808E+01 -4.25482E+00 -2.65838E+01 -1.24247E+01 -1.60457E+01 -1.78848E+01 -9.99901E+00 -1.91392E+01
 -3.42808E+00 -1.78193E+01  9.48275E-01 -1.15272E+01  4.07538E+00 -9.41736E+00  1.13501E+01 -2.90177E+00
  1.10119E+01  6.82747E+00  4.85532E+00  1.29194E+01 -8.88257E+00  1.80153E+01 -2.11188E+01  1.18183E+01
 -2.84514E+01  1.16452E+00 -3.46037E+01 -1.12132E+01 -2.95669E+01 -3.13133E+01 -1.46331E+01 -4.60585E+01
  1.17829E+01 -4.95908E+01  3.29764E+01 -3.86745E+01  4.49703E+01 -2.24247E+01  4.71531E+01  3.65565E+00
  3.62256E+01  2.14593E+01  1.84748E+01  3.58047E+01 -6.27854E+00  3.11235E+01 -1.97350E+01  2.10311E+01
 -2.55728E+01 -1.09497E+00 -1.67435E+01 -1.51597E+01 -2.91101E+00 -2.69135E+01  1.29563E+01 -2.59442E+01
  3.02925E+01 -1.54417E+01  3.97947E+01 -3.06668E+00  3.92931E+01  1.52729E+01  3.07022E+01  2.77713E+01
  1.75883E+01  3.95664E+01  2.13022E+00  4.15226E+01 -1.39837E+01  3.86477E+01 -2.62773E+01  3.07924E+01
 -3.72906E+01  2.22698E+01 -4.23310E+01  8.81645E+00 -3.95461E+01 -9.89527E+00 -3.32278E+01 -2.04791E+01
 -1.86635E+01 -3.06318E+01 -4.14982E+00 -3.38007E+01  8.42218E+00 -3.33609E+01  2.22229E+01 -2.03492E+01
  2.66615E+01 -7.73907E+00  2.19657E+01  7.97085E+00  1.46233E+01  1.52126E+01 -6.42723E-01  1.84216E+01
 -9.67841E+00  1.45314E+01 -1.35346E+01  8.20818E-01 -1.56340E+01 -1.14349E+01 -3.83735E+00 -1.43505E+01
  4.92595E+00 -1.84683E+01  1.74152E+01 -9.89151E+00  2.26042E+01  4.12226E-01  1.85478E+01  9.77795E+00
  1.23061E+01  1.97205E+01  1.12755E+00  2.18057E+01 -1.10119E+01  2.18173E+01 -2.22540E+01  1.28476E+01
 -2.51023E+01  6.11698E+00 -2.43147E+01 -7.70134E+00 -2.06280E+01 -1.91476E+01 -1.31030E+01 -2.25118E+01
 -4.97064E+00 -3.02418E+01  7.07917E+00 -2.78279E+01  1.41933E+01 -2.26898E+01  2.36484E+01 -1.95161E+01
  2.79615E+01 -9.02825E+00  3.29140E+01  2.24380E+00  2.56657E+01  1.51678E+01  1.87057E+01  2.58922E+01
  8.33178E+00  2.88400E+01 -5.37620E+00  2.80731E+01 -1.10334E+01  2.03839E+01 -1.79551E+01  1.25850E+01
 -1.50199E+01  4.32155E+00 -1.12397E+01 -2.38870E+00 -6.10700E+00 -1.96442E+00 -1.61067E+00 -2.44698E+00
  1.22054E+00  2.78657E+00 -2.08157E+00  7.54708E+00 -9.39690E+00  1.13479E+01 -1.75993E+01  8.21680E+00
 -2.04569E+01 -6.18467E-01 -2.40488E+01 -8.51005E+00 -1.78923E+01 -1.47856E+01 -1.02549E+01 -2.44470E+01
 -3.52107E-02 -2.79912E+01  1.13571E+01 -2.34610E+01  1.83190E+01 -1.93026E+01  2.64103E+01 -7.45220E+00
  2.44969E+01  3.67259E+00  2.03972E+01  1.53720E+01  1.37349E+01  2.10219E+01  9.24297E-01  2.64517E+01
 -1.21179E+01  2.46835E+01 -1.92410E+01  1.58437E+01 -2.84749E+01  5.27535E+00 -2.98440E+01 -3.82242E+00
 -2.62667E+01 -1.97018E+01 -1.84080E+01 -2.59179E+01 -7.76299E+00 -2.88356E+01  3.12614E+00 -2.86178E+01
  1.55524E+01 -2.57979E+01  1.91274E+01 -1.59478E+01  2.12075E+01 -8.00998E+00  1.84635E+01 -4.25960E+00
  1.28252E+01  1.62418E+00  1.31328E+01  2.65863E+00  8.50132E+00 -8.28888E-01  1.16450E+01 -3.12375E+00
  1.57860E+01 -8.98770E-01  1.81317E+01  4.26632E-01  2.16791E+01  5.28073E+00  2.00267E+01  1.23826E+01
  1.46239E+01  2.12540E+01  1.15840E+01  2.56567E+01  8.44938E-01  2.65768E+01 -4.05986E+00  2.61854E+01
 -1.53360E+01  2.53669E+01 -2.45486E+01  1.87190E+01 -2.64721E+01  1.18496E+01 -2.61108E+01  2.73786E+00
 -2.28873E+01 -5.85933E+00 -1.87481E+01 -1.27905E+01 -9.71407E+00 -1.87790E+01 -2.96008E+00 -1.87944E+01
  5.90711E+00 -1.85233E+01  8.06164E+00 -9.76998E+00  1.06160E+01 -5.83856E+00  8.40946E+00  3.94655E+00
  3.15621E+00  5.96718E+00  4.32652E-01  4.20580E+00 -4.47801E+00  7.07109E-01 -5.78245E+00  1.31526E+00
 -3.76472E+00 -6.13622E+00 -1.74334E+00 -8.58639E+00  1.25029E+00 -8.92923E+00  9.12490E+00 -6.84730E+00
  9.91420E+00 -4.56225E-01  6.34191E+00  5.12385E+00  3.36780E+00  9.48809E+00 -1.78008E+00  1.06868E+01
 -9.41293E+00  7.14611E+00 -1.31046E+01  5.45533E+00 -1.45436E+01  2.23822E-02 -1.66509E+01 -5.21270E+00
 -1.13840E+01 -1.45970E+01 -7.12525E+00 -1.70182E+01  2.39815E+00 -2.08179E+01  8.82378E+00 -2.01629E+01
  1.56692E+01 -1.55973E+01  2.31750E+01 -7.69526E+00  2.39272E+01  2.85763E+00  2.04498E+01  9.83470E+00
  1.54678E+01  1.49126E+01  5.28992E+00  1.81304E+01  6.63050E-01  1.78620E+01 -6.26457E+00  1.32537E+01
 -8.02152E+00  1.12662E+01 -9.94144E+00  4.92799E+00 -9.87446E+00 -1.06905E-01 -6.40139E+00 -4.13002E+00
 -1.95819E+00 -2.94542E+00  4.32891E+00 -4.52128E+00  6.01039E+00  1.29002E+00  5.81404E+00  2.38178E+00
  1.21258E+00  6.97006E+00 -2.27895E+00  6.65771E+00 -2.79692E+00  6.58901E+00 -8.29337E+00  3.50807E+00
 -8.44923E+00  8.73792E-02 -8.08364E+00  6.90135E-01 -4.00855E+00 -1.20125E+00 -4.25169E+00 -5.72098E+00
 -1.75905E+00 -6.47156E-01  4.04793E+00  7.63111E-01  3.19070E+00  1.79837E+00 -7.81994E-01  5.71824E+00
 -3.42689E+00  5.12053E+00 -6.43830E+00  6.31021E+00 -1.21086E+01  6.55995E+00 -1.24245E+01  4.44804E-01
 -1.30926E+01 -5.37197E+00 -1.19778E+01 -1.03653E+01 -8.91938E+00 -1.31849E+01 -4.48245E+00 -1.32146E+01
  3.95082E+00 -1.23989E+01  6.94275E+00 -1.01905E+01  1.12325E+01 -6.21692E+00  1.14734E+01  1.19663E+00
  5.11241E+00  5.31808E+00  1.97431E+00  4.72647E+00 -3.34147E+00  4.91313E+00 -4.80114E+00  2.22569E+00
 -6.18100E+00 -5.23603E+00 -4.62624E+00 -7.44824E+00  2.14135E+00 -8.38546E+00  7.40759E+00 -1.00388E+01
  9.20331E+00 -6.10597E+00  1.39543E+01 -4.84464E+00  1.48700E+01  2.31777E+00  1.24701E+01  4.50561E+00
  6.04529E+00  8.95273E+00  5.28988E+00  1.40659E+01  1.32394E-01  1.22279E+01 -3.87617E+00  9.04752E+00
 -6.96389E+00  5.66138E+00 -8.66982E+00 -1.42237E-01 -6.64388E+00  3.12156E-01 -3.27975E+00 -5.25137E+00
  1.74363E+00 -3.38213E+00  5.00599E+00 -5.09607E+00  4.32524E+00 -3.16453E+00  3.90194E+00  1.09095E+00
  1.33677E+00  7.90298E+00 -2.59886E+00  9.77797E+00 -6.24894E+00  7.84209E+00 -8.66781E+00  5.29941E+00
 -1.02501E+01  4.92603E-01 -1.07457E+01 -6.03253E+00 -8.23995E+00 -1.03735E+01 -7.77539E+00 -1.57649E+01
  6.43035E-01 -1.31257E+01  8.20592E+00 -1.24144E+01  8.73054E+00 -1.07858E+01  1.45118E+01 -5.60004E+00
  1.59995E+01  1.53668E+00  1.02575E+01  8.23546E+00  8.77415E+00  9.74206E+00  1.61577E+00  1.27037E+01
 -1.52927E+00  1.18562E+01 -5.65757E+00  9.00547E+00 -8.83732E+00  4.89476E+00 -8.45290E+00  3.98505E+00
 -8.21006E+00  5.42557E-01 -7.70433E+00 -1.12499E+00 -3.77867E+00 -1.85559E+00 -1.33703E+00 -3.23080E+00
 -3.27270E+00 -4.31447E+00 -6.34275E-02 -3.17635E+00 -4.23832E+00 -1.40345E+00 -1.77981E+00 -3.96571E+00
 -4.60107E+00 -1.63363E+00 -5.04699E+00 -6.40170E+00 -5.41523E+00 -8.01411E+00 -2.50378E+00 -1.18518E+01
  1.40797E+00 -1.08188E+01  9.52858E+00 -9.16516E+00  1.11455E+01 -7.81409E+00  1.52411E+01 -4.06900E+00
  1.42468E+01  1.40019E+00  8.57743E+00  6.04529E+00  5.68232E+00  1.24394E+01  4.61244E+00  1.26162E+01
 -2.83352E+00  8.60540E+00 -5.74674E+00  6.38701E+00 -7.59034E+00  2.66252E+00 -6.31785E+00  2.05458E+00
 -5.89110E+00 -6.95440E-01 -3.66661E+00 -5.06833E-02 -4.08479E+00 -3.19786E-02  3.36608E-01 -2.62726E-01
  1.68920E-01  1.73814E+00  3.41577E-01  3.30807E+00 -3.86341E-01  9.98873E-01 -3.15903E+00  4.57480E-01
 -2.84782E+00 -5.77778E-01 -5.73722E+00  1.11458E-01 -6.11417E+00 -2.09857E+00 -2.96839E+00 -6.01946E+00
  4.47304E-01 -5.89560E+00 -7.22339E-01 -5.75197E+00  8.93634E-01 -3.50494E+00  3.29069E+00  1.03313E+00
  5.59097E+00  3.25321E+00  5.48781E-02  2.31296E+00 -1.76586E+00  6.48978E+00 -5.65422E+00  6.08809E+00
 -7.43654E+00  2.09224E-01 -8.86793E+00 -3.53184E+00 -1.24424E+01 -8.59545E+00 -4.83143E+00 -8.86480E+00
 -2.72474E+00 -1.15074E+01  3.27194E+00 -1.40311E+01  8.98189E+00 -1.39729E+01  1.27637E+01 -8.03802E+00
  1.23805E+01 -4.82982E+00  1.47529E+01  2.31427E+00  1.27772E+01  4.77593E+00  1.09516E+01  7.71250E+00
  5.70565E+00  9.06716E+00  3.77431E+00  9.83308E+00  6.23906E-02  7.99260E+00 -1.13835E+00  6.81638E+00
 -4.11405E+00  4.83987E+00 -1.27833E-03  5.94327E+00  3.35935E-01  1.97368E+00 -1.32917E+00  3.53529E+00
 -3.60796E+00  3.46485E+00 -5.12009E+00  2.99844E+00 -4.82833E+00  2.92190E+00 -6.90564E+00  4.26206E+00
