 $NMID ID='dataset22', FMTDAT='(8E13.5)'
 TRAMP=1, VOLUME=1 $END
  1.82347E+02  2.18361E+02  3.11225E+02  4.17232E+02  1.04015E+02  4.79138E+02 -9.87360E+01  4.34508E+02
 -2.38078E+02  3.10202E+02 -2.94771E+02  1.50849E+02 -2.62592E+02  6.43257E+00 -1.75353E+02 -8.82778E+01
 -7.60252E+01 -1.11826E+02  6.93754E+00 -8.66913E+01  4.73992E+01 -2.53558E+01  4.07818E+01  3.13175E+01
  5.11487E+00  7.02052E+01 -3.50703E+01  7.49322E+01 -6.97726E+01  6.02038E+01 -9.21763E+01  2.96482E+01
 -9.63889E+01 -2.59211E+00 -8.67939E+01 -2.71650E+01 -7.36488E+01 -5.08039E+01 -5.83781E+01 -6.54175E+01
 -3.31435E+01 -7.81909E+01 -1.02149E+01 -8.09678E+01  1.76164E+01 -7.77839E+01  4.07858E+01 -6.36203E+01
  5.85773E+01 -3.53352E+01  6.24175E+01 -9.03626E-01  4.43848E+01  2.51119E+01  1.42363E+01  4.51220E+01
 -1.63664E+01  3.90512E+01 -4.15328E+01  1.43664E+01 -5.15370E+01 -1.81900E+01 -3.58350E+01 -5.13350E+01
 -5.58866E+00 -6.98510E+01  3.08498E+01 -7.24565E+01  6.03975E+01 -5.79700E+01  8.01152E+01 -2.97387E+01
  8.56351E+01  4.15993E+00  7.58795E+01  3.55163E+01  5.54085E+01  5.17534E+01  3.72455E+01  6.53203E+01
  1.18954E+01  6.73340E+01 -8.74223E+00  6.43534E+01 -2.71768E+01  5.91881E+01 -4.04098E+01  4.46795E+01
 -4.45594E+01  2.62220E+01 -4.02818E+01  6.99142E+00 -3.38940E+01 -8.28118E+00 -1.22904E+01 -1.93164E+01
 -1.53371E-01 -9.68659E+00  9.56925E+00  3.57522E-01  6.27576E+00  1.85616E+01 -8.21951E+00  3.37663E+01
 -3.23167E+01  3.19295E+01 -5.21861E+01  1.46954E+01 -5.69237E+01 -1.27642E+01 -4.50624E+01 -4.38437E+01
 -2.16891E+01 -6.20464E+01  1.71874E+01 -6.24723E+01  4.77783E+01 -4.73433E+01  6.50063E+01 -1.53857E+01
  6.02434E+01  2.57662E+01  4.15801E+01  5.54415E+01  5.52705E+00  6.96293E+01 -2.93717E+01  6.06059E+01
 -5.18650E+01  3.90022E+01 -6.22700E+01  9.56190E+00 -5.82220E+01 -1.64091E+01 -4.20002E+01 -3.55827E+01
 -1.97580E+01 -4.30532E+01 -3.62568E+00 -4.22379E+01  7.28173E+00 -3.69331E+01  1.54127E+01 -2.77028E+01
  2.18372E+01 -2.21893E+01  2.33748E+01 -9.42263E+00  2.05812E+01 -1.04824E+00  2.12953E+01  7.78057E+00
  8.48654E+00  1.54321E+01 -2.94001E+00  1.66032E+01 -1.18120E+01  7.07111E+00 -1.97718E+01 -5.83757E+00
 -1.96239E+01 -1.99136E+01 -6.43505E+00 -3.33887E+01  1.37891E+01 -3.48917E+01  3.29012E+01 -2.79332E+01
  4.70255E+01 -5.97568E+00  4.88144E+01  1.65175E+01  3.55868E+01  4.05697E+01  6.95532E+00  5.00636E+01
 -1.88847E+01  4.37399E+01 -3.69511E+01  2.83206E+01 -4.59731E+01 -8.20090E-01 -3.60990E+01 -2.11360E+01
 -1.12700E+01 -3.57148E+01  1.41738E+01 -3.94280E+01  3.16875E+01 -2.50558E+01  4.68911E+01 -3.05092E+00
  4.24858E+01  1.76253E+01  3.07556E+01  3.68358E+01  1.07641E+01  5.10791E+01 -1.20827E+01  4.79405E+01
 -2.81727E+01  3.97074E+01 -4.48058E+01  2.65981E+01 -4.92410E+01  8.20925E+00 -5.07245E+01 -9.08687E+00
 -4.42988E+01 -2.39263E+01 -2.88730E+01 -3.57209E+01 -1.37382E+01 -4.47929E+01  4.56596E+00 -4.69439E+01
  1.94866E+01 -3.68611E+01  3.51151E+01 -2.36211E+01  3.78787E+01 -6.07085E+00  2.95730E+01  9.77723E+00
  1.42789E+01  1.90690E+01  5.57509E-01  2.28720E+01 -1.30153E+01  1.27153E+01 -1.66377E+01 -1.51165E+00
 -1.55098E+01 -1.19386E+01 -1.34154E-02 -2.39455E+01  1.01942E+01 -2.08668E+01  2.38946E+01 -1.56098E+01
  2.94328E+01  3.81390E-01  2.70784E+01  1.70718E+01  1.60926E+01  2.70433E+01 -4.15737E+00  3.34791E+01
 -2.07291E+01  2.45587E+01 -2.91935E+01  1.29869E+01 -3.32069E+01  1.14343E+00 -2.81433E+01 -1.38036E+01
 -1.57445E+01 -2.31609E+01 -6.94659E+00 -3.15771E+01  8.75601E+00 -3.06296E+01  1.55185E+01 -2.62556E+01
  2.60852E+01 -1.85326E+01  2.84453E+01 -7.52122E+00  3.01848E+01  1.87296E+00  3.00139E+01  1.71406E+01
  2.03241E+01  2.70722E+01  8.93144E+00  3.38529E+01 -2.12969E+00  3.37122E+01 -1.83508E+01  2.78372E+01
 -2.24995E+01  1.64115E+01 -3.00807E+01  7.68281E+00 -2.32404E+01 -7.04340E+00 -1.71961E+01 -1.18965E+01
 -7.47309E+00 -1.34104E+01  1.17017E+00 -1.29714E+01  3.17993E+00 -3.65201E+00  4.47903E+00  1.38089E+00
 -7.33735E+00  6.30142E+00 -1.46117E+01  3.45930E+00 -1.87795E+01 -4.22577E+00 -2.05487E+01 -1.32242E+01
 -1.16379E+01 -2.03097E+01 -3.32964E+00 -2.65497E+01  1.07443E+01 -3.13823E+01  1.88926E+01 -2.14465E+01
  2.86607E+01 -1.08078E+01  2.87388E+01  2.59942E-01  2.72639E+01  1.42279E+01  1.84072E+01  2.47206E+01
  3.89972E+00  2.54799E+01 -6.63469E+00  2.90129E+01 -1.80519E+01  2.09470E+01 -2.82372E+01  5.99957E+00
 -3.09884E+01 -5.33210E+00 -2.74837E+01 -1.73737E+01 -1.32810E+01 -3.03027E+01 -3.16973E+00 -3.46207E+01
  1.45900E+01 -3.44831E+01  2.76410E+01 -2.74302E+01  3.58783E+01 -1.16585E+01  3.43205E+01  2.23522E+00
  3.37668E+01  1.07137E+01  2.23662E+01  1.85007E+01  1.20511E+01  2.18597E+01  7.85098E+00  2.18923E+01
  4.19300E-01  1.95974E+01 -2.55659E+00  1.08033E+01  8.67609E-01  1.22122E+01  1.20350E+00  1.06569E+01
  1.43020E+00  1.14941E+01  1.45840E+00  1.84510E+01 -2.34807E+00  1.85494E+01 -5.32111E+00  2.15925E+01
 -1.27342E+01  2.26367E+01 -2.19172E+01  1.56332E+01 -2.66585E+01  1.18427E+01 -2.86654E+01  3.81274E+00
 -2.61074E+01 -9.12568E+00 -2.39012E+01 -1.40020E+01 -1.93593E+01 -2.53739E+01 -6.61240E+00 -2.77952E+01
  1.54483E+00 -2.38985E+01  1.18420E+01 -2.09306E+01  1.67827E+01 -1.43249E+01  1.85126E+01 -7.01865E+00
  1.71439E+01  2.85452E+00  1.05660E+01  1.16217E+01  4.30816E+00  1.19470E+01 -1.24751E+00  1.29711E+01
 -1.12337E+01  4.91045E+00 -7.98997E+00  1.53416E-01 -1.02202E+01 -8.67652E+00 -6.17946E+00 -9.57807E+00
  1.13529E+00 -8.57924E+00  7.70876E+00 -9.22734E+00  1.15094E+01 -5.00382E+00  7.96036E+00  1.08880E+00
  4.31060E+00  7.96648E+00  2.58579E+00  5.31213E+00 -4.19913E+00  7.43740E+00 -6.34939E+00  4.93185E+00
 -1.07341E+01 -2.26384E+00 -5.48772E+00 -7.98106E+00 -3.70106E+00 -1.00656E+01  5.61670E+00 -1.30958E+01
  1.19891E+01 -1.16361E+01  1.42616E+01 -7.47817E+00  1.87274E+01  3.96136E-02  1.88904E+01  8.42498E+00
  1.64774E+01  1.77170E+01  9.99931E+00  2.39382E+01  2.75215E+00  2.54973E+01 -4.41080E+00  2.29394E+01
 -1.36637E+01  1.94907E+01 -2.14392E+01  1.28538E+01 -2.35965E+01  6.48676E+00 -2.30683E+01 -6.92999E+00
 -1.27831E+01 -1.09623E+01 -6.46523E+00 -1.80144E+01  1.69537E+00 -1.58238E+01  8.01024E+00 -8.81150E+00
  8.38257E+00 -6.74256E+00  1.28843E+01  3.45408E+00  9.64278E+00  7.14075E+00  4.40144E+00  7.76174E+00
 -3.49064E-01  1.12056E+01 -6.01966E+00  8.31978E+00 -6.46161E+00  4.24625E+00 -9.46318E+00  5.10261E-01
 -4.33499E+00 -2.14422E+00 -3.24456E+00 -5.82761E+00 -2.56418E+00 -1.17772E+00 -3.60058E+00 -3.54404E+00
 -2.45735E+00 -4.20969E-01 -4.69337E+00  1.08234E+00 -3.49624E+00  2.13040E+00 -1.00567E+01  2.41770E+00
 -8.93166E+00 -1.22982E+00 -1.52562E+01 -6.76903E+00 -1.23812E+01 -1.18250E+01 -1.04894E+01 -1.85554E+01
 -1.56987E+00 -2.19225E+01  5.80692E+00 -1.83112E+01  1.41284E+01 -1.89468E+01  1.96007E+01 -1.40280E+01
  2.04213E+01 -6.13753E+00  2.04386E+01  5.85446E+00  1.58206E+01  9.97667E+00  8.28756E+00  1.09249E+01
 -1.81510E+00  1.32046E+01 -4.29885E+00  6.39359E+00 -8.72476E+00  3.14438E+00 -7.94499E+00  9.15823E-02
 -2.79706E+00 -7.61101E+00  2.36801E+00 -9.33131E+00  8.87706E+00 -7.49076E+00  1.03190E+01 -2.39093E+00
  8.66073E+00  1.58259E+00  8.19028E+00  6.21090E+00  2.70636E+00  1.23093E+01 -1.42651E+00  1.13093E+01
 -2.52299E+00  9.92376E+00 -6.46684E+00  9.64219E+00 -7.96386E+00  5.84267E+00 -8.88627E+00 -2.55339E+00
 -1.03791E+01 -3.12358E+00 -2.98811E+00 -7.07677E+00  2.57850E+00 -9.29401E+00  6.32301E+00 -6.76402E+00
  7.73344E+00 -2.49312E-01  7.61500E+00  2.66750E+00  5.63846E+00  8.82243E+00  4.24933E+00  9.67671E+00
 -5.48499E+00  1.09949E+01 -1.09723E+01  8.70807E+00 -1.17880E+01  2.62943E+00 -1.64787E+01 -4.96939E-01
 -1.51799E+01 -9.51856E+00 -1.07342E+01 -1.17517E+01 -2.40548E+00 -1.83913E+01  3.79587E+00 -1.57569E+01
  8.56348E+00 -1.02684E+01  1.39924E+01 -8.11032E+00  1.68238E+01 -1.27727E+00  1.35996E+01  6.67797E+00
  1.14027E+01  1.02742E+01  5.52239E+00  1.39594E+01 -3.13916E+00  1.33268E+01 -6.66081E+00  1.07739E+01
 -1.03191E+01  5.56546E+00 -1.02454E+01  1.45254E+00 -1.03485E+01 -1.86235E+00 -8.34315E+00 -4.62641E+00
 -7.59195E+00 -7.83326E+00 -1.81176E+00 -5.65286E+00  2.53096E+00 -3.28938E+00  2.72804E+00 -5.08953E+00
 -8.26569E-01 -1.29963E-01 -5.82293E-01  1.42911E+00  3.44721E-01 -2.58496E+00 -1.07043E+00 -1.75293E+00
 -4.80044E+00 -4.52296E+00 -1.36541E+00 -9.27500E+00  1.19932E+00 -1.15980E+01  7.45702E+00 -1.28183E+01
  8.96840E+00 -7.94271E+00  1.20755E+01 -2.30374E+00  1.54426E+01  3.22942E+00  1.15719E+01  6.77231E+00
  1.04306E+01  9.81946E+00  3.07252E+00  1.43354E+01  7.16897E-01  1.52360E+01 -5.68914E+00  1.17422E+01
 -5.54891E+00  6.31914E+00 -8.11367E+00  4.25524E+00 -9.77205E+00 -8.16120E-01 -7.48352E+00 -2.35213E+00
 -5.65027E-01 -4.53568E-01 -3.61515E+00 -1.80105E+00 -3.13434E+00 -1.94588E+00 -2.97310E+00 -5.65250E-01
 -1.25367E+00 -5.75264E-01 -3.18305E+00  2.41524E+00 -2.08734E+00 -1.25117E+00 -3.67661E+00  2.08742E+00
 -6.95510E+00 -3.09898E+00 -3.90656E+00 -2.03340E+00 -6.28707E+00 -4.20265E+00  6.59579E-01 -5.62631E+00
  3.37287E+00 -8.72633E+00  5.75930E-01 -6.06398E+00  3.42665E+00 -7.07745E-01  2.07917E+00  1.45363E+00
  2.20181E+00  8.00495E-01  8.16424E-01  3.52858E+00 -5.14930E+00  2.43793E+00 -7.79478E+00  2.38987E+00
 -9.71119E+00 -4.15474E+00 -9.02428E+00 -6.38122E+00 -4.54577E+00 -1.50632E+01  1.69297E-01 -1.41968E+01
  6.42701E+00 -1.53099E+01  1.22932E+01 -9.10722E+00  1.42644E+01 -4.63740E+00  1.69971E+01 -1.25579E+00
  1.42951E+01  7.51014E+00  9.55413E+00  1.23129E+01  7.59946E+00  1.54809E+01  2.09080E+00  1.42292E+01
 -4.05905E+00  1.24987E+01 -5.53232E+00  1.14768E+01 -5.16344E+00  8.06579E+00 -5.69567E+00  2.66290E+00
 -7.67053E+00 -9.26756E-01 -5.06691E+00  2.70777E+00 -2.04327E-01 -1.77022E+00 -1.21240E+00  2.35139E-01
 -3.34350E+00 -1.89258E-01 -5.73974E+00  5.52085E+00 -4.98649E+00  2.27793E+00 -8.24256E+00  7.16877E-01
 -8.97189E+00 -3.05918E+00 -6.25036E+00 -4.82534E+00 -7.92449E+00 -1.21016E+01 -6.32106E-01 -1.47040E+01
