 $NMID ID='dataset18', FMTDAT='(8E13.5)'
 TRAMP=1, VOLUME=1 $END
  4.99552E+04  3.01062E+01  4.97377E+04  3.42189E+01  4.94351E+04  4.14028E+01  4.92426E+04 -3.34121E+01
  4.89698E+04  2.09781E+01  4.87524E+04  3.57613E+00  4.85825E+04  3.74312E+01  4.83028E+04  3.33540E+01
  4.80409E+04  3.14414E+01  4.78893E+04  4.33800E+01  4.76430E+04 -2.13747E+01  4.73639E+04 -2.13740E+01
  4.71628E+04  1.44195E+01  4.69278E+04 -3.97413E+01  4.67484E+04  3.86470E+01  4.65324E+04 -4.57178E+01
  4.63019E+04  1.74338E+01  4.61060E+04  2.85876E+01  4.58409E+04  1.92115E+01  4.56742E+04 -2.64002E+01
  4.54531E+04 -3.27787E+01  4.52496E+04  3.54792E+01  4.50315E+04  8.64005E+00  4.48188E+04  2.31538E+01
  4.45489E+04  1.05906E+01  4.44096E+04 -1.00475E+01  4.42147E+04  2.38424E+01  4.39959E+04  6.42982E+00
  4.37944E+04  3.04993E+01  4.35730E+04 -1.09993E+01  4.33426E+04 -2.51777E+01  4.31473E+04  2.73006E+01
  4.29710E+04 -1.18778E+01  4.27854E+04 -1.79768E+01  4.25451E+04 -1.30747E+01  4.23162E+04  2.04073E+01
  4.21143E+04 -1.90375E+01  4.19011E+04  2.50181E+01  4.17635E+04 -1.13876E+00  4.15374E+04  3.11207E+01
  4.13386E+04  2.93772E+01  4.11930E+04  4.02202E+01  4.09567E+04  2.15988E+01  4.07989E+04 -3.44634E+01
  4.06191E+04 -2.78250E+01  4.03514E+04 -3.76088E+01  4.02081E+04 -4.51013E+01  4.00124E+04 -1.05633E+00
  3.98627E+04 -2.52416E+01  3.96005E+04 -2.67369E+01  3.94053E+04 -4.56325E+01  3.92813E+04 -3.85051E+01
  3.91104E+04  1.04278E+00  3.89144E+04  3.73698E+00  3.87102E+04  4.38327E+01  3.85776E+04 -1.53083E+01
  3.83367E+04  4.56887E+01  3.81444E+04 -5.69162E+00  3.79437E+04  3.88498E+01  3.77863E+04  1.12737E+01
  3.76759E+04  3.60799E+01  3.74581E+04 -4.62145E+01  3.72970E+04 -1.90092E+01  3.70995E+04  2.23048E+01
  3.69220E+04 -9.04338E+00  3.68017E+04  1.46676E+01  3.65672E+04  1.69963E+00  3.63721E+04  2.41944E+01
  3.62775E+04  3.84296E+01  3.60838E+04 -6.90815E+00  3.59191E+04 -1.69801E+01  3.57392E+04  9.71607E+00
  3.55215E+04 -8.86524E-01  3.54390E+04 -7.25315E+00  3.52064E+04 -4.02736E+01  3.50741E+04  1.75722E+01
  3.49231E+04  1.72855E+01  3.47225E+04  2.97705E+01  3.45340E+04  1.79986E+01  3.44147E+04 -1.95257E+00
  3.42244E+04 -1.90589E+01  3.41101E+04 -3.55186E+01  3.38843E+04 -3.07987E+01  3.38072E+04 -1.96480E+01
  3.35747E+04  4.44199E+01  3.34246E+04  1.70321E+01  3.32506E+04  4.15041E+01  3.31092E+04 -2.21106E+01
  3.29618E+04 -2.61346E+01  3.27988E+04  3.54849E+01  3.26998E+04 -4.49877E+01  3.25082E+04  2.79770E+01
  3.23901E+04  6.14421E+00  3.21692E+04  1.70915E+01  3.20272E+04  3.25806E-01  3.19237E+04  3.61557E+01
  3.18000E+04 -3.92944E+00  3.16500E+04  3.25425E+01  3.14824E+04  5.98059E+00  3.13245E+04  6.14805E+00
  3.11451E+04 -2.15906E+00  3.10684E+04  6.41006E+00  3.08651E+04 -3.00875E+01  3.07457E+04  2.38897E+01
  3.05998E+04 -2.70946E+00  3.04014E+04  3.77987E+01  3.03400E+04  3.00298E+01  3.01693E+04  1.82078E+01
  3.00224E+04 -1.85802E+01  2.99033E+04  1.82331E+01  2.96892E+04 -1.95014E+01  2.95628E+04 -5.74478E+00
  2.94637E+04  6.58754E+00  2.93213E+04 -2.35738E+01  2.91821E+04  2.54150E+01  2.90544E+04  3.60226E+01
  2.89513E+04  3.21226E+01  2.87720E+04 -4.09989E+01  2.86529E+04  1.94654E+01  2.85424E+04 -3.26653E+01
  2.83208E+04  2.93892E+01  2.82545E+04 -2.24637E+01  2.81409E+04 -2.34667E+01  2.79663E+04 -2.40451E+01
  2.78254E+04  3.74203E+01  2.76621E+04  6.03167E+00  2.75896E+04  3.52800E+01  2.74895E+04 -3.72955E+01
  2.73049E+04 -4.55612E+01  2.72140E+04  1.63362E+01  2.70232E+04 -2.85193E+01  2.69017E+04 -3.49492E+01
  2.67960E+04 -2.67844E+01  2.66396E+04 -7.77918E+00  2.65416E+04 -3.02996E+01  2.64635E+04 -2.59198E+00
  2.62648E+04  2.95373E+01  2.61828E+04 -2.07352E+01  2.60116E+04  3.24984E+00  2.58973E+04  3.66756E+01
  2.58206E+04  2.01377E+01  2.57239E+04 -2.20521E+01  2.56186E+04  4.68501E+01  2.54369E+04  2.71824E+01
  2.53312E+04 -4.09386E+01  2.52204E+04 -1.56781E+01  2.51091E+04  2.71704E+01  2.49414E+04 -4.08605E+01
  2.48541E+04 -3.74403E+01  2.47576E+04 -3.62426E+01  2.46227E+04  4.12444E+01  2.45559E+04 -1.03713E+00
  2.43620E+04  9.45010E+00  2.42818E+04 -4.03152E-01  2.41369E+04  1.17635E+01  2.40885E+04  4.15775E+00
  2.39837E+04 -1.40539E+01  2.37988E+04  2.42037E+01  2.37251E+04  9.64685E+00  2.35934E+04  1.83490E+01
  2.35152E+04  3.37958E+01  2.33538E+04 -1.29714E+01  2.32442E+04 -3.12418E+01  2.31183E+04  9.82593E+00
  2.30163E+04  1.50289E+01  2.29728E+04  1.74491E+01  2.28217E+04 -1.54199E+01  2.26899E+04  6.83185E+00
  2.25842E+04  9.05009E+00  2.25108E+04  1.61840E+01  2.23638E+04 -1.58680E+01  2.23403E+04 -5.71060E+00
  2.22309E+04  4.58926E+01  2.21358E+04  1.91580E+01  2.20125E+04 -7.60197E+00  2.18660E+04 -4.34006E+01
  2.18102E+04 -3.33896E+01  2.16505E+04  7.44668E+00  2.15768E+04 -3.67530E+01  2.14589E+04 -6.68318E+00
  2.13919E+04 -3.76033E+01  2.12517E+04 -1.79329E+01  2.12164E+04 -1.02649E+01  2.10996E+04  3.18948E+00
  2.09623E+04  4.34042E+01  2.09134E+04 -3.83266E+01  2.08242E+04  8.50923E+00  2.07137E+04  9.97962E+00
  2.05417E+04 -3.39777E-01  2.04589E+04 -3.78817E+01  2.04302E+04  2.77997E+01  2.02767E+04 -1.84472E+01
  2.01898E+04  4.27301E+01  2.00873E+04 -3.37342E+01  1.99692E+04  1.66232E+01  1.99038E+04 -2.29258E+01
  1.98534E+04 -1.09583E+01  1.97060E+04  1.50656E+01  1.96254E+04 -2.50189E+01  1.95429E+04  1.50657E+01
  1.94215E+04 -1.36631E+01  1.94045E+04  1.97319E+01  1.92442E+04 -2.17682E+01  1.91650E+04 -2.01560E+01
  1.91167E+04  2.12204E+01  1.89978E+04 -1.43335E+00  1.89578E+04 -1.22247E+01  1.87802E+04 -3.38352E+00
  1.87231E+04 -1.76576E+01  1.86376E+04  1.35374E+01  1.85318E+04  3.20523E+01  1.84836E+04 -1.65514E+01
  1.84176E+04 -2.79038E+01  1.82779E+04 -4.33974E+01  1.81695E+04  3.71359E+00  1.81715E+04  3.10312E+01
  1.80497E+04 -1.04402E+01  1.79675E+04 -1.42887E+01  1.78668E+04 -2.02092E+01  1.77876E+04  3.83076E+01
  1.76953E+04 -1.24735E+01  1.75914E+04 -5.42352E+00  1.75657E+04 -1.41195E+00  1.74159E+04  3.86075E+01
  1.74209E+04  1.50123E+01  1.73311E+04 -1.53261E+01  1.72425E+04 -2.66786E+01  1.70947E+04 -3.01332E+01
  1.70935E+04  2.57415E+00  1.69422E+04 -1.13112E+01  1.69343E+04  1.01961E+01  1.68070E+04 -1.21421E+01
  1.66918E+04 -4.57008E+01  1.66531E+04  1.03915E+01  1.65795E+04 -2.99456E+01  1.64845E+04  2.34077E+00
  1.64236E+04  1.72908E+01  1.63526E+04 -2.45770E+01  1.62312E+04 -2.90675E+00  1.61900E+04 -3.46830E+01
  1.60824E+04 -3.40348E+01  1.60233E+04 -4.57063E+01  1.60010E+04  6.91341E+00  1.58600E+04  2.44209E+01
  1.57990E+04 -2.54097E+01  1.57540E+04  1.91936E+00  1.56396E+04  4.47146E+01  1.55749E+04  1.45979E+01
  1.55492E+04 -8.59537E+00  1.54663E+04 -3.48614E+01  1.53580E+04  3.76543E+01  1.52765E+04  9.43574E+00
  1.52324E+04 -4.22523E+01  1.51417E+04 -4.26326E+01  1.51278E+04 -3.58229E+01  1.49992E+04 -1.43057E+01
  1.49700E+04  2.89479E+01  1.48541E+04  1.68023E+01  1.47600E+04  7.99651E+00  1.47226E+04  3.04541E+01
  1.46714E+04  2.50722E+01  1.45808E+04 -3.55985E-01  1.45484E+04  4.52777E+00  1.44399E+04  4.52821E+01
  1.44083E+04 -3.05821E+01  1.43684E+04 -2.22378E+01  1.42971E+04  1.86910E+01  1.42195E+04  3.41090E+01
  1.41595E+04 -2.13833E+01  1.40988E+04  2.01902E+01  1.40039E+04 -3.26567E+01  1.38798E+04  1.38393E+01
  1.38307E+04  2.66727E+01  1.38021E+04  5.36700E-01  1.36910E+04  3.78361E+01  1.36483E+04  2.24661E+01
  1.36368E+04 -2.90494E+01  1.35433E+04 -3.64200E+01  1.34524E+04  2.64743E+01  1.33720E+04 -1.15044E+01
  1.33850E+04 -3.65386E+01  1.32813E+04 -4.02009E+00  1.32450E+04 -1.82183E+01  1.31153E+04  2.31319E+00
  1.31110E+04  2.10798E+01  1.30033E+04  3.57992E+01  1.29405E+04  2.96399E+01  1.28825E+04 -1.07084E+01
  1.28492E+04  7.15628E+00  1.28308E+04 -2.21343E+01  1.27365E+04  4.16632E+01  1.26611E+04  3.39237E+01
  1.26449E+04  1.09027E+01  1.25553E+04  1.19458E+01  1.25218E+04 -3.94269E+01  1.24525E+04  2.15444E+01
  1.23393E+04 -1.66317E+01  1.23166E+04 -4.47954E+01  1.22728E+04 -3.13598E+00  1.22246E+04  1.73868E+01
  1.21000E+04  3.42736E+01  1.20473E+04  2.39560E+01  1.20439E+04  1.09635E+01  1.19520E+04 -3.81181E+01
  1.19248E+04 -2.14037E+01  1.18422E+04 -3.89042E+01  1.18221E+04 -2.77211E+00  1.17400E+04 -3.27626E+01
  1.16716E+04  4.29543E+01  1.16750E+04  1.95268E+01  1.15905E+04 -2.62650E+01  1.15326E+04 -5.05085E+00
  1.14910E+04  4.55803E+01  1.13990E+04  3.59029E+01  1.13793E+04 -4.68065E+01  1.13475E+04 -2.36762E+01
  1.12372E+04 -1.20786E+01  1.11642E+04  4.18189E+01  1.11517E+04 -2.34801E+01  1.11366E+04 -4.66369E+01
  1.10721E+04 -3.98786E+01  1.09924E+04 -4.40014E+01  1.09876E+04 -4.62619E+01  1.08654E+04  4.18359E+00
  1.08836E+04  1.70606E+01  1.08116E+04 -2.04742E+01  1.07381E+04  5.39116E+00  1.07136E+04 -4.27357E+01
  1.06727E+04  1.26675E+01  1.05537E+04 -4.08518E+01  1.05845E+04 -1.74487E+00  1.04857E+04  1.64147E+01
  1.04763E+04 -1.73804E-01  1.03600E+04  4.22202E+01  1.03367E+04 -1.83298E+01  1.03054E+04 -3.57964E+01
  1.02155E+04 -3.41338E+01  1.01689E+04  2.40002E+01  1.01568E+04 -4.79380E+00  1.01418E+04 -2.82138E+01
  1.00127E+04 -9.98720E-01  1.00468E+04  6.44889E+00  9.97614E+03 -3.22295E+01  9.91159E+03  4.08335E+01
  9.88523E+03  1.28061E+01  9.81752E+03 -6.12485E+00  9.74537E+03 -2.95817E+01  9.70884E+03 -1.75090E+01
  9.71707E+03 -2.18656E+01  9.66642E+03 -1.18151E+01  9.58209E+03 -7.95901E+00  9.52136E+03  9.20491E+00
  9.51580E+03  3.98314E+01  9.42261E+03 -1.99686E+00  9.44674E+03  3.74154E+01  9.38023E+03 -4.58168E+00
  9.34110E+03  2.42470E+01  9.25928E+03 -3.61364E+01  9.20306E+03 -5.60402E+00  9.20493E+03 -3.93058E+01
  9.14199E+03 -4.63129E+00  9.11201E+03 -2.71749E+01  9.04015E+03 -4.28773E+01  9.00992E+03 -8.97056E+00
  8.97942E+03 -1.14582E+01  8.96384E+03 -1.60988E+01  8.86973E+03 -4.29981E+01  8.83799E+03  1.07447E+00
  8.81568E+03  2.60405E+01  8.77854E+03  2.69256E+01  8.76898E+03 -8.83715E+00  8.69890E+03  3.63894E+01
  8.64960E+03  3.59574E+01  8.56924E+03  7.83052E-01  8.56255E+03  1.11006E+01  8.54680E+03  3.21280E+00
