 $NMID ID='dataset10', FMTDAT='(8E13.5)'
 TRAMP=1, VOLUME=1 $END
  4.87513E+04  1.97500E+00  4.85070E+04 -1.00495E+01  4.82692E+04  9.06215E+00  4.80476E+04  7.93782E+00
  4.78505E+04 -2.13529E+01  4.76193E+04 -1.00951E+01  4.73997E+04  7.33651E+00  4.71677E+04 -1.64023E+01
  4.69362E+04 -1.01900E+01  4.67302E+04 -1.52565E+01  4.65216E+04 -1.45242E+01  4.62626E+04 -5.65281E+00
  4.60455E+04  1.97370E+01  4.58227E+04 -9.81762E+00  4.56453E+04 -2.07415E-01  4.54335E+04  8.20796E-02
  4.51893E+04 -9.46655E+00  4.49953E+04  3.53313E+00  4.48008E+04  1.73673E+01  4.45680E+04  4.77028E+00
  4.43687E+04  1.92595E+01  4.41281E+04  1.49566E+00  4.39316E+04  1.51004E+01  4.37262E+04  1.23650E+01
  4.35294E+04  1.75484E+01  4.33471E+04 -9.82575E+00  4.31178E+04 -6.88381E+00  4.29379E+04  1.28570E+01
  4.27207E+04  6.69071E+00  4.24998E+04 -2.34946E+01  4.23043E+04 -1.03922E+00  4.21346E+04  1.24505E+01
  4.19214E+04  1.40040E+01  4.17191E+04 -9.65192E+00  4.15392E+04 -2.18582E+00  4.13302E+04  2.41861E+00
  4.11403E+04  8.93916E+00  4.09465E+04 -2.07545E+01  4.07381E+04 -5.78286E+00  4.05565E+04  3.11064E+00
  4.03897E+04  1.13264E+01  4.01611E+04 -2.13236E+01  3.99803E+04 -2.01441E+01  3.98239E+04 -5.59527E+00
  3.96287E+04  1.88191E+01  3.94411E+04  1.73573E+01  3.92543E+04 -1.43640E+01  3.90388E+04  1.18210E+01
  3.88755E+04  2.45385E+00  3.87036E+04  1.21416E+01  3.85168E+04 -1.32072E+00  3.83217E+04 -9.23995E+00
  3.81443E+04 -2.06389E+01  3.79587E+04 -1.66880E+01  3.78019E+04 -6.82924E+00  3.76139E+04 -1.21888E+01
  3.74520E+04  7.52303E+00  3.72474E+04 -3.24238E+00  3.70643E+04 -3.01435E+00  3.69260E+04  5.82664E+00
  3.67278E+04 -6.59486E+00  3.65816E+04 -1.39460E+01  3.63968E+04  1.90319E+01  3.62372E+04 -1.93554E+01
  3.60662E+04  1.03134E+01  3.58699E+04 -1.97520E+01  3.57018E+04  1.88280E+01  3.55636E+04  6.86233E+00
  3.53906E+04  1.16934E+01  3.52012E+04 -2.64973E+00  3.50259E+04  1.07669E+01  3.48903E+04 -1.13223E+01
  3.47271E+04 -1.17880E+01  3.45315E+04 -5.17062E+00  3.43863E+04  5.39315E+00  3.42171E+04  6.64194E+00
  3.40708E+04 -2.18324E+01  3.38928E+04 -5.47960E+00  3.37327E+04 -8.46017E-01  3.35915E+04 -1.53028E+00
  3.34224E+04  1.81667E+01  3.32645E+04  1.04873E+01  3.31168E+04  7.47212E+00  3.29844E+04 -7.12948E+00
  3.28251E+04  1.45096E+01  3.26752E+04 -1.83117E+01  3.24788E+04 -1.65410E+01  3.23478E+04 -1.17746E+01
  3.21837E+04  8.27830E+00  3.20451E+04  1.08822E+01  3.19177E+04  1.28334E+01  3.17549E+04  1.43147E+01
  3.15900E+04  5.40602E+00  3.14666E+04 -1.60661E+01  3.13184E+04  1.36540E+01  3.11612E+04 -2.35084E+01
  3.09951E+04  1.62532E+01  3.08754E+04  2.30499E+00  3.07313E+04 -1.48516E+01  3.05664E+04 -8.37450E+00
  3.04225E+04 -2.24400E+01  3.03025E+04 -9.74922E-01  3.01346E+04 -1.09837E+01  2.99971E+04  1.37086E+00
  2.98467E+04  1.22268E+01  2.97393E+04 -2.86059E+00  2.95693E+04 -7.50656E+00  2.94498E+04  2.16893E+01
  2.93013E+04  9.59901E+00  2.91523E+04 -8.81630E+00  2.90155E+04  2.15044E+01  2.89038E+04 -2.06075E+01
  2.87412E+04 -8.78670E+00  2.86101E+04 -4.74951E+00  2.85031E+04  4.17686E+00  2.83491E+04  9.40817E+00
  2.82119E+04 -2.12411E+01  2.81036E+04  4.34147E+00  2.79320E+04  1.34953E+01  2.78268E+04  1.91525E+01
  2.76846E+04 -1.69158E+01  2.75779E+04 -6.19511E+00  2.74331E+04  2.23752E+00  2.73132E+04  2.21516E+00
  2.71615E+04  2.48839E+00  2.70533E+04  1.61427E+00  2.69142E+04  1.22190E+01  2.67692E+04 -1.40817E+01
  2.66817E+04  2.07382E+01  2.65411E+04  8.15627E+00  2.64344E+04  1.48857E+01  2.62961E+04  2.20554E+01
  2.61876E+04  7.17731E+00  2.60568E+04 -1.21346E+01  2.59012E+04 -1.85318E+01  2.57790E+04 -1.48771E+01
  2.56898E+04 -5.77194E+00  2.55813E+04 -1.76994E+01  2.54196E+04  3.82798E+00  2.53057E+04 -4.78293E-01
  2.51816E+04 -8.27514E-02  2.50625E+04 -4.48281E+00  2.49577E+04 -1.31043E+01  2.48396E+04 -1.70008E+01
  2.47423E+04  1.10005E+01  2.46285E+04 -2.02427E+01  2.44955E+04 -1.00983E+01  2.44011E+04 -1.78746E+01
  2.42465E+04  2.27555E+01  2.41370E+04 -2.13883E+01  2.40484E+04 -1.46271E+01  2.39362E+04 -2.28321E+01
  2.38049E+04 -7.37185E+00  2.36888E+04 -5.30019E+00  2.35814E+04  7.02388E+00  2.34796E+04 -1.02261E+01
  2.33631E+04 -2.78723E+00  2.32785E+04  5.02430E+00  2.31406E+04  2.06932E+00  2.30539E+04 -3.14994E+00
  2.29231E+04 -2.37564E+00  2.28356E+04  5.64316E+00  2.27100E+04  1.13236E+01  2.25944E+04 -7.66379E+00
  2.25202E+04  1.94013E+01  2.23919E+04  2.03036E+01  2.23083E+04  3.12373E+00  2.21777E+04 -2.24202E+01
  2.20924E+04  1.93660E+01  2.19751E+04 -2.00940E+01  2.18567E+04  1.23719E+00  2.17780E+04 -1.99494E+01
  2.16806E+04  2.08999E+01  2.15568E+04 -2.13040E+01  2.14486E+04  1.73634E+01  2.13821E+04  1.29454E+00
  2.12448E+04  1.98305E+01  2.11460E+04 -3.08860E+00  2.10606E+04 -2.09709E+01  2.09922E+04  1.78207E+00
  2.08600E+04 -3.25332E+00  2.07899E+04  3.34773E+00  2.06761E+04  8.49503E-01  2.05592E+04  2.26492E+01
  2.04950E+04 -1.40728E+01  2.03708E+04  1.10117E+01  2.03042E+04  9.90962E+00  2.01821E+04  2.25355E+01
  2.01037E+04  1.99724E+00  1.99830E+04 -6.79589E+00  1.99232E+04 -9.25013E-01  1.98394E+04 -1.70144E+01
  1.97390E+04  5.72492E+00  1.96242E+04 -6.15926E+00  1.95230E+04  1.40242E+01  1.94492E+04 -1.85443E+01
  1.93572E+04 -2.34242E+01  1.92469E+04  1.87283E+01  1.91826E+04  2.33350E+01  1.90695E+04  1.59518E+01
  1.89856E+04  1.74699E+01  1.89150E+04  2.07851E+01  1.88022E+04 -1.38447E+00  1.87064E+04 -3.83715E+00
  1.86594E+04  1.73252E+01  1.85390E+04  6.52061E+00  1.84682E+04  1.03486E+01  1.83659E+04  9.52065E+00
  1.82867E+04 -1.58624E+00  1.81846E+04 -1.53261E+01  1.81097E+04  1.19600E+01  1.80392E+04 -1.85447E+01
  1.79531E+04  3.48163E+00  1.78878E+04 -2.16089E+01  1.77687E+04 -1.91254E+01  1.77042E+04 -1.09784E+01
  1.76147E+04  1.76389E+01  1.75232E+04 -2.18673E+01  1.74589E+04 -1.56155E+01  1.73627E+04  1.61240E+01
  1.72986E+04 -2.32494E+01  1.71877E+04 -2.15732E+01  1.71413E+04  1.76453E+01  1.70628E+04 -1.77610E+01
  1.69594E+04  8.99233E+00  1.68928E+04 -1.68586E+00  1.68131E+04  8.14902E+00  1.67419E+04  2.09005E+01
  1.66554E+04 -1.04851E+01  1.65859E+04  1.63940E+01  1.64835E+04  6.75883E+00  1.64193E+04 -4.76661E+00
  1.63507E+04  3.68198E+00  1.62668E+04 -2.26715E+01  1.61590E+04  1.15964E+01  1.61180E+04  2.02012E+01
  1.60103E+04  4.57290E+00  1.59724E+04  5.22600E+00  1.58803E+04  6.09398E-01  1.58018E+04 -6.04276E+00
  1.57243E+04  9.37302E+00  1.56476E+04  1.58529E+01  1.55849E+04  2.03014E+01  1.55141E+04  9.97102E+00
  1.54433E+04 -2.14699E+01  1.53772E+04  1.62677E+01  1.52904E+04 -2.27659E+01  1.51978E+04  1.15391E+01
  1.51707E+04 -4.60758E+00  1.50669E+04  7.52517E+00  1.50140E+04  1.67628E+01  1.49348E+04 -1.51476E+01
  1.48454E+04  3.51474E+00  1.47730E+04 -1.09884E+01  1.47343E+04 -1.03607E+01  1.46466E+04 -5.06521E+00
  1.45926E+04 -2.18678E+01  1.45268E+04 -9.32469E+00  1.44389E+04 -1.12383E+01  1.43984E+04 -1.45227E+01
  1.43198E+04 -1.26534E+01  1.42585E+04 -1.52504E+01  1.42041E+04 -3.25197E+00  1.41066E+04  1.12663E+01
  1.40655E+04 -2.32336E+01  1.39806E+04  5.92304E+00  1.39360E+04 -4.20325E+00  1.38323E+04 -3.42005E+00
  1.37833E+04 -9.17453E+00  1.37196E+04 -2.53110E+00  1.36638E+04 -1.65655E+01  1.36075E+04 -4.26556E+00
  1.35161E+04  5.33271E+00  1.34622E+04 -1.80274E+01  1.33916E+04 -1.37695E+01  1.33525E+04 -8.35732E+00
  1.32643E+04  2.22189E+01  1.32324E+04  4.55721E+00  1.31575E+04 -1.27100E+01  1.30883E+04 -2.27967E+01
  1.30386E+04  6.69456E+00  1.29476E+04  7.27343E+00  1.29220E+04  2.16602E+01  1.28433E+04  3.11013E+00
  1.27648E+04 -1.14685E+01  1.27343E+04  2.81213E+00  1.26868E+04 -1.30048E+01  1.25845E+04  1.96075E+01
  1.25321E+04  5.30926E+00  1.24904E+04 -3.18121E+00  1.24105E+04  7.91035E+00  1.23716E+04  1.21371E+00
  1.22973E+04 -1.90781E+01  1.22380E+04  8.14651E+00  1.22114E+04 -3.61042E+00  1.21617E+04 -6.88265E+00
  1.20591E+04  6.63450E+00  1.20201E+04  7.55220E+00  1.19754E+04  7.68261E+00  1.18903E+04 -2.14864E+01
  1.18334E+04 -1.11389E+01  1.18186E+04  1.38802E+01  1.17340E+04  5.50885E+00  1.16998E+04  1.29061E+01
  1.16325E+04  2.61236E+00  1.15597E+04  8.94230E+00  1.15235E+04 -1.44195E+01  1.14639E+04  6.48449E+00
  1.14231E+04  1.43630E+01  1.13870E+04  1.13764E+01  1.13265E+04 -1.41593E-01  1.12681E+04 -1.57614E+00
  1.11842E+04  7.69323E-01  1.11454E+04  1.83743E+01  1.11054E+04  1.74207E+00  1.10641E+04 -1.17940E+01
  1.10158E+04  1.85387E+01  1.09614E+04  7.72179E-01  1.08852E+04 -6.75366E+00  1.08222E+04 -1.88678E+01
  1.07696E+04 -6.70865E+00  1.07346E+04  1.36850E+01  1.06804E+04 -7.32646E+00  1.06534E+04  2.26340E+01
  1.05830E+04  1.21286E+01  1.05424E+04 -2.94519E+00  1.04715E+04  1.84700E+01  1.04263E+04 -9.47286E-01
  1.03928E+04  1.81542E+00  1.03388E+04  3.94864E+00  1.03045E+04  7.88691E+00  1.02423E+04 -2.33497E+01
  1.01984E+04 -2.14565E+01  1.01501E+04  2.10023E+01  1.00923E+04  1.21256E+01  1.00645E+04 -1.71832E+01
  1.00279E+04  2.70358E+00  9.97247E+03  1.05864E+01  9.92557E+03 -1.28481E+01  9.84628E+03  1.13259E+01
  9.84157E+03  2.64170E+00  9.75967E+03  1.70236E+01  9.74177E+03  2.00062E+00  9.69512E+03  8.57944E+00
  9.61898E+03 -6.79404E+00  9.60625E+03 -1.26176E+01  9.53026E+03  1.96366E+01  9.52353E+03  1.04954E+01
  9.46448E+03  1.75333E+01  9.43216E+03  1.67805E+01  9.36157E+03 -2.20233E+01  9.33828E+03  4.16557E+00
  9.27181E+03 -1.17604E+01  9.21909E+03 -1.46634E+00  9.21328E+03  2.30509E+01  9.15164E+03  1.96463E+01
  9.10466E+03  2.09172E+01  9.06628E+03  8.70088E+00  9.01288E+03 -9.81130E+00  8.98617E+03 -1.98141E+01
  8.91413E+03 -4.96897E+00  8.90721E+03 -1.12089E+01  8.83647E+03 -2.10186E+01  8.79459E+03  1.39098E+01
  8.75008E+03 -1.19982E+01  8.74929E+03  1.16911E+01  8.68738E+03 -4.19083E+00  8.63052E+03 -4.23628E+00
  8.58740E+03 -5.57228E-01  8.54742E+03 -1.89314E+01  8.54012E+03  2.22568E+01  8.48925E+03 -1.11317E+01
  8.45188E+03  4.74303E+00  8.41749E+03  1.35760E+01  8.35006E+03 -1.32645E+01  8.33426E+03 -9.99582E+00
