 $NMID ID='dataset17', FMTDAT='(8E13.5)'
 TRAMP=1, VOLUME=1 $END
  2.54984E+02  9.85654E+01  4.71759E+02  2.26600E+02  3.19089E+02  3.70111E+02  1.44827E+02  4.12300E+02
 -5.12814E+01  3.95334E+02 -1.74757E+02  2.86466E+02 -2.19319E+02  1.39315E+02 -2.03135E+02  2.65606E+01
 -1.18142E+02 -6.46137E+01 -3.54888E+01 -7.22542E+01  2.11192E+01 -5.16678E+01  6.29284E+01 -6.50443E+00
  5.35233E+01  5.96799E+01  1.14836E+01  7.79018E+01 -3.30600E+01  7.33505E+01 -4.95390E+01  7.66186E+01
 -8.45408E+01  5.05673E+01 -7.34324E+01  1.18076E+01 -6.74672E+01  1.86824E+01 -9.28703E+01 -7.32226E+00
 -7.90976E+01 -3.19215E+01 -5.32264E+01 -5.61520E+01 -2.45110E+01 -8.33003E+01 -1.16098E+00 -7.07304E+01
  3.07918E+01 -6.84711E+01  4.27975E+01 -3.16129E+01  5.33688E+01 -1.25012E+01  2.95278E+01  1.45141E+01
  2.45680E+00  4.52238E+01 -3.69091E+01  2.96259E+01 -5.24957E+01  1.98869E+01 -5.82474E+01 -2.28758E+01
 -6.87544E+01 -4.16767E+01 -3.86055E+01 -5.87708E+01  8.22447E+00 -8.12862E+01  4.46266E+01 -8.39547E+01
  6.02240E+01 -4.75335E+01  7.60123E+01 -3.07428E+01  6.70322E+01 -9.06172E+00  6.34924E+01 -1.57899E+00
  6.68240E+01  1.71341E+01  4.61028E+01  4.43203E+01  3.40483E+01  5.75439E+01  2.36904E+01  4.98086E+01
 -5.87062E+00  6.41489E+01 -1.73617E+01  4.02494E+01 -1.67671E+01  1.01149E+01 -2.99934E+01  7.38696E-01
 -1.93871E+01 -1.40323E+00  1.01059E+01 -3.70191E+00  2.51936E+01  7.23346E+00  2.79874E+01  1.99376E+01
 -3.36689E+00  5.83161E+01 -3.35888E+01  6.10280E+01 -4.17868E+01  5.52826E+01 -7.60952E+01  2.25503E+01
 -5.31925E+01 -2.29128E+01 -3.47078E+01 -3.92317E+01 -2.01683E+01 -7.95797E+01  2.25271E+01 -4.97926E+01
  4.12502E+01 -3.50582E+01  7.03456E+01  3.18382E+00  4.94973E+01  3.88362E+01  1.87907E+01  4.72659E+01
  1.47216E+01  7.05265E+01 -1.49054E+01  5.84569E+01 -5.18910E+01  3.23434E+01 -5.75578E+01  1.44851E+01
 -4.16703E+01 -2.20438E+01 -2.84393E+01 -3.18920E+01 -8.46617E+00 -2.02566E+01 -1.23526E+01 -3.91313E+01
 -1.59610E+01 -2.70036E+01  8.59392E+00 -1.50581E+01  3.25856E+00 -1.29604E+01  2.01584E+01 -1.50984E+01
  1.63463E+01 -1.96793E+00  2.06540E+01 -8.62940E-01  5.11629E+00  2.81800E+01 -4.00106E+00  2.51753E+01
 -3.17529E+01 -4.03336E+00 -4.38138E+01 -1.50795E+01 -2.91128E+01 -3.89642E+01 -7.73150E+00 -4.92200E+01
  6.76648E+00 -4.84571E+01  4.92877E+01 -3.85998E+01  6.17765E+01 -1.69629E+01  5.09379E+01  1.95815E+01
  2.62143E+01  4.42514E+01  1.42559E+01  5.70967E+01 -2.58051E+01  3.19035E+01 -4.27893E+01  1.05174E+01
 -4.43832E+01 -1.38557E+01 -4.21344E+01 -2.85262E+01 -6.88487E+00 -3.78672E+01  3.76243E+00 -4.88619E+01
  2.75122E+01 -2.00389E+01  5.08534E+01 -1.34943E+01  3.62108E+01  1.60771E-01  4.61596E+01  3.72339E+01
  3.19584E+01  3.94128E+01  1.30901E+01  6.14370E+01  1.99788E-01  4.20125E+01 -3.89002E+01  3.79048E+01
 -4.75783E+01  2.97369E+01 -3.28333E+01  1.53009E+01 -5.78369E+01 -1.60526E+01 -3.72982E+01 -2.87388E+01
 -3.31370E+01 -4.13444E+01 -1.32168E+01 -2.40111E+01 -4.70048E+00 -3.36249E+01  9.32522E+00 -1.34182E+01
  3.22957E+01 -1.31221E+01  1.53932E+01  1.97151E+01  1.05123E+01  7.16244E+00 -2.11788E+00  5.96508E+00
 -8.01026E+00  1.01777E+01 -2.95782E+01  2.03609E+00 -7.16196E+00 -2.25701E+01  9.16021E-01 -2.80471E+01
 -2.67019E+00 -3.09898E+01  1.81112E+01 -2.86981E+01  3.60191E+01 -1.53513E+01  2.35520E+01  2.14919E+01
  7.80844E+00  1.24739E+01 -6.54607E+00  3.13759E+01 -2.52334E+01  2.55778E+01 -1.70878E+01  1.14371E+01
 -1.80015E+01  7.81506E+00 -4.03335E+01 -1.33436E+01 -2.74250E+01 -1.21411E+01 -6.25300E+00 -1.18280E+01
 -1.06199E+01 -2.88282E+01  1.08392E+01 -4.24209E+01  2.64659E+00 -3.04115E+01  3.51910E+01 -2.67241E+01
  4.70402E+01 -2.55929E+01  4.19629E+01  7.53054E+00  4.59369E+01  2.54021E+01  2.52460E+01  2.06709E+01
  1.42357E+01  2.72789E+01 -8.30951E+00  2.71239E+01 -3.86221E+00  1.79709E+01 -2.26203E+01  1.83411E+01
 -4.24128E+00 -4.27519E+00 -1.53735E+01  1.79455E+00 -1.03490E+01 -4.16243E+00  5.65511E+00 -4.44925E+00
  7.18077E+00  1.46636E+01  9.84309E+00  1.59109E+01 -9.18542E+00  2.76245E+01 -1.57485E+01  1.57500E+01
 -2.15993E+01  6.98443E+00 -2.68744E+01 -1.99245E+01 -1.66340E+01 -2.78351E+00 -1.27467E+01 -1.24829E+01
 -1.49625E+01 -3.85757E+01  1.57691E+01 -3.59786E+01  2.25061E+01 -1.80434E+01  4.07652E+01 -1.84912E+01
  1.79845E+01  1.25279E+01  3.18237E+01  6.99022E+00  7.42960E+00  3.21736E+01 -9.63607E+00  2.27369E+01
 -2.19423E+00  2.96899E+01 -1.58867E+01  1.38940E+01 -4.64526E+01  9.37772E+00 -4.75289E+01 -1.38216E+01
 -2.55892E+01 -3.07154E+01 -2.36240E+01 -3.15053E+01 -7.16098E-01 -5.11246E+01  1.67590E+01 -2.92398E+01
  1.23316E+01 -3.84435E+01  3.46578E+01 -1.83970E+01  3.94716E+01  1.87354E-01  3.22606E+01 -7.78324E+00
  1.05845E+01 -7.55178E+00  2.31115E+01  4.73440E+00  1.89570E+01  4.14461E+00  1.06240E+01 -1.15723E+01
  1.41169E+01 -1.19744E+01  2.81960E+01  1.35551E+00  3.14094E+01 -2.44637E+00  1.46431E+01  2.86589E+01
  8.79982E+00  1.88121E+01  2.02638E+01  3.45850E+01  2.16538E+00  2.05335E+01 -1.89895E+01  4.25628E+01
 -8.19955E+00  2.87348E+01 -1.89701E+01  2.82621E+01 -2.68711E+01  1.89767E+01 -2.85771E+01 -7.45133E+00
 -3.76113E+01  2.49526E+00 -1.48925E+01 -2.00476E+01 -1.32106E+01 -9.01290E+00 -8.95072E+00 -3.44259E+01
  3.77969E+00 -6.04983E+00  2.52439E-01 -1.27193E+01  2.37105E+00 -9.56350E+00  4.26863E+00 -7.09392E+00
  8.44196E+00  1.47041E+01  1.02273E+01  2.25889E+01 -2.08594E+01  9.39643E+00 -8.60714E+00 -9.57181E+00
 -1.29469E+01  1.65849E+00 -9.64695E+00 -1.16002E+01  1.72361E+00  1.92641E+00  8.56030E+00 -9.47415E+00
  1.63109E+01 -7.33475E+00  1.35222E+01 -5.99608E-01 -4.01299E+00  1.05253E+01 -1.09612E+01  1.48917E+01
  6.88552E+00  9.60409E+00  3.07405E+00  1.64051E-01 -1.97728E+01  1.03949E+01 -2.09174E+01 -5.69290E-01
 -7.66152E+00 -8.55042E+00  6.75252E+00 -3.05488E+01  2.12059E+01 -2.07085E+01  1.70879E+01 -1.80626E+01
  3.10322E+01  1.00684E+00  2.20727E+01  6.63925E+00  2.10963E+01 -3.79371E+00  8.28784E+00  7.34038E+00
  6.23731E+00  2.47499E+01 -4.23924E+00  1.83228E+01  1.16938E+01  2.10215E+01 -1.69518E+01  1.36315E+01
 -1.66244E+01  3.08674E+00 -1.31366E+01  2.54821E+00  1.21903E+00 -3.04497E+00 -1.22401E+00 -1.24773E+01
  4.26081E+00  3.76932E+00  2.31072E+00 -8.41059E+00  2.02425E+01  3.71731E+00  5.21627E+00  4.53594E-01
 -4.85794E-01  2.61622E+00 -4.64285E+00 -5.91207E+00 -1.55785E+01  2.98175E+00 -8.15364E+00  1.14868E+01
  5.52324E+00 -3.58792E+00 -6.41489E+00 -8.01300E+00 -1.74082E+01 -2.73529E+00  7.54544E+00  3.91826E+00
  1.25175E+01 -6.26085E+00  1.35935E+01  7.09450E+00 -8.54268E+00  5.03912E+00  5.02427E+00  1.02732E+01
  3.22256E+00  8.79576E-01 -2.60489E+00  3.05789E+00 -1.84473E+01  1.89265E+01 -9.63104E+00 -8.18897E+00
 -2.03597E+01  1.88590E+00 -2.79247E+00 -2.14385E+01  3.52460E+00 -2.87373E+01 -1.00852E+01 -1.67276E+01
 -8.41101E+00 -2.08421E+01  2.09569E+00 -6.41866E+00  5.10611E+00  7.06271E+00  1.83152E+01  1.15128E+00
  1.39245E+00 -6.46566E+00  4.56709E+00  1.45322E+01  5.84080E+00  1.95609E+01 -1.69536E+01 -1.02261E+00
  7.34873E+00 -4.84238E+00  3.13595E+00 -8.03073E+00 -6.73520E+00 -1.78998E+01 -4.94240E+00 -8.07772E+00
  1.90202E+01 -9.84225E+00  2.02868E+01 -1.09345E+01  1.05454E+01 -1.13945E+01  9.05710E+00  1.92928E+01
 -6.61868E+00 -3.46555E+00  3.76431E+00 -2.30160E+00 -1.31926E+01  8.37708E+00  9.61349E+00  1.83554E+01
 -2.12326E+01  3.49141E+00 -2.82735E+00 -3.45692E+00 -9.99738E+00  1.00012E+01 -1.20936E+01 -2.32865E+00
 -9.59847E+00 -1.77197E+01 -7.49735E+00  6.01715E-01  1.73010E+01  1.24601E+01  1.33024E+01 -9.96529E+00
  8.39141E-01  2.19612E+01  3.87576E+00  9.64419E+00 -1.42861E+01  1.25073E+01 -1.82668E+01  5.21483E+00
 -2.54107E+01  8.83114E+00 -2.13641E+01 -6.49903E+00 -1.46002E+01 -5.51085E+00 -4.17958E+00 -2.79528E+01
  7.67036E+00 -4.51399E+00 -2.49580E+00 -2.58984E+01  1.75077E+01 -4.84697E+00  1.92428E+00  3.10784E+00
  1.96419E+00 -4.10730E+00  1.76210E+01  1.88677E+01  1.23614E+01  1.10838E+01 -7.06972E+00  1.46266E+01
  1.84912E+00  1.23979E+01 -4.71715E+00  1.46268E+01 -1.65702E+00  1.81255E+01  5.13639E+00  4.50071E-01
  4.45925E+00  1.15529E-01  5.24952E+00 -6.18933E+00  3.86547E+00 -2.66241E+00 -1.01229E+01 -1.05947E+01
  5.96735E+00  4.02890E+00  9.96930E+00  8.17205E+00  3.74049E-01 -1.12575E+01 -4.73349E+00 -9.95846E+00
 -4.52786E+00  8.35063E+00 -1.09219E+01  1.05861E+01  4.38624E+00 -1.94333E+01 -7.84072E+00 -1.09565E+01
  4.99806E+00 -4.94893E+00  7.59309E+00 -1.13399E+01  2.67591E+01 -2.20523E+01  2.88622E+01 -1.03364E+01
  1.07598E+01 -4.66040E+00  2.14322E+01  1.40757E+01  1.42236E+01  1.67585E+01  8.61152E+00  1.61076E+01
  5.13593E+00  1.56272E+01 -1.87756E+01  1.68502E+01  2.22775E+00  3.02329E+00 -9.86068E-01  9.82430E+00
  1.55252E+00 -1.26211E+01 -1.74260E+01  5.20180E+00 -4.11646E+00  9.27948E+00 -4.41033E+00 -7.24745E+00
  2.13666E+00  7.83194E+00 -1.08487E+01 -8.05633E+00 -1.55130E+01  1.29717E+01 -6.55675E+00 -2.70804E-01
  2.11004E+00  1.39595E+01 -1.37538E+01 -7.22174E+00 -1.59923E+01  4.80321E+00  1.86099E+00  2.86326E+00
  1.15846E+01 -1.66542E+01 -1.22066E+01  4.29160E+00  1.57771E+00 -1.52297E+01 -1.05752E+01 -1.42115E+01
  1.79753E+01  3.88245E+00  8.63120E+00  1.15794E+01 -1.59226E+01  4.24009E+00  3.86897E+00  1.58971E+00
 -1.52922E+01  1.10267E+01 -2.18902E+01 -6.79766E+00 -8.23633E+00  1.34794E+00 -7.38659E+00 -1.72301E+01
  1.11290E+01 -2.90757E+01 -8.63448E+00 -2.90027E+01 -9.37608E-01 -2.46621E+00  1.18946E+01  4.30942E+00
  2.52143E+01  1.80470E+00  1.18909E+01  2.20091E+00 -1.43111E+00 -9.24420E+00  8.71437E+00  4.84454E+00
  1.62891E+01  2.20753E+01 -3.22073E-01 -5.59171E+00 -7.91633E+00  2.17401E+01  1.42805E+00  1.22548E+01
  1.07142E+01  1.66161E+01  4.17360E+00  2.62918E+00  1.38401E+00 -1.47547E+00  1.38166E+01 -2.50341E+00
  1.27963E+01 -3.02268E+00 -3.91451E+00  1.07140E+01 -2.31393E+00  1.75239E+01  4.57300E-01  5.06705E+00
 -1.22664E+01 -1.11243E+01 -8.07197E+00  6.61100E+00 -2.48785E+01 -1.14664E+01 -6.30493E+00 -6.45254E+00
