 $NMID ID='dataset23', FMTDAT='(8E13.5)'
 TRAMP=1, VOLUME=1 $END
  7.72404E+02  5.54325E+02  9.96593E+02  6.41594E+02  8.69976E+02  7.71945E+02  6.95052E+02  8.07619E+02
  5.34510E+02  7.42269E+02  4.20284E+02  6.02876E+02  3.86283E+02  4.40056E+02  4.19196E+02  2.95279E+02
  5.08537E+02  1.88331E+02  5.92422E+02  1.44693E+02  6.66147E+02  1.36810E+02  7.06777E+02  1.63028E+02
  6.97145E+02  1.77342E+02  6.75312E+02  1.81686E+02  6.39872E+02  1.55439E+02  6.05261E+02  1.15578E+02
  5.80175E+02  5.92010E+01  5.75281E+02  3.50442E+00  5.61151E+02 -4.86469E+01  5.58164E+02 -9.60559E+01
  5.65305E+02 -1.40400E+02  5.67628E+02 -1.95841E+02  5.85834E+02 -2.32779E+02  6.04336E+02 -2.59518E+02
  6.15888E+02 -2.85311E+02  6.25083E+02 -2.85486E+02  6.17854E+02 -2.74038E+02  5.84359E+02 -2.62111E+02
  5.41236E+02 -2.73914E+02  4.94413E+02 -2.89086E+02  4.39038E+02 -3.28040E+02  4.17192E+02 -3.79038E+02
  3.96366E+02 -4.34636E+02  3.97528E+02 -4.78546E+02  4.07084E+02 -4.97483E+02  4.22880E+02 -5.04736E+02
  4.14324E+02 -5.03943E+02  4.10315E+02 -4.90528E+02  3.84949E+02 -4.68434E+02  3.53128E+02 -4.52702E+02
  3.18205E+02 -4.46995E+02  2.81237E+02 -4.43196E+02  2.27964E+02 -4.37024E+02  1.90955E+02 -4.44598E+02
  1.50031E+02 -4.52107E+02  1.12369E+02 -4.61995E+02  8.22256E+01 -4.84972E+02  6.17154E+01 -4.95765E+02
  5.79665E+01 -4.98345E+02  4.08967E+01 -4.94306E+02  2.71333E+01 -4.75361E+02  3.34974E+00 -4.49077E+02
 -3.15426E+01 -4.25367E+02 -7.68161E+01 -4.18856E+02 -1.23338E+02 -4.10777E+02 -1.60318E+02 -4.24424E+02
 -1.73914E+02 -4.43169E+02 -1.73621E+02 -4.59751E+02 -1.63447E+02 -4.62645E+02 -1.39714E+02 -4.40155E+02
 -1.28441E+02 -4.07179E+02 -1.36169E+02 -3.58379E+02 -1.56568E+02 -3.08587E+02 -1.98277E+02 -2.74792E+02
 -2.40403E+02 -2.49335E+02 -2.78235E+02 -2.34782E+02 -3.10865E+02 -2.29437E+02 -3.22803E+02 -2.34622E+02
 -3.23897E+02 -2.44204E+02 -3.20752E+02 -2.30109E+02 -3.19787E+02 -2.25240E+02 -3.16161E+02 -2.09714E+02
 -3.07055E+02 -1.90635E+02 -3.07772E+02 -1.72403E+02 -2.97911E+02 -1.45082E+02 -2.98495E+02 -1.17444E+02
 -2.98509E+02 -9.21530E+01 -2.96066E+02 -5.97330E+01 -3.06300E+02 -3.74088E+01 -3.21797E+02 -2.12055E+01
 -3.24433E+02 -1.80455E+01 -3.28241E+02 -1.45885E+01 -3.21005E+02 -1.19733E+01 -2.94664E+02 -8.24623E+00
 -2.67085E+02  3.91954E+00 -2.37792E+02  2.95684E+01 -2.15143E+02  5.68392E+01 -2.12053E+02  9.75557E+01
 -2.17670E+02  1.30594E+02 -2.33789E+02  1.54936E+02 -2.45605E+02  1.55558E+02 -2.52632E+02  1.56204E+02
 -2.46377E+02  1.34259E+02 -2.28204E+02  1.23776E+02 -1.97452E+02  1.23228E+02 -1.61355E+02  1.23361E+02
 -1.36224E+02  1.50541E+02 -1.08119E+02  1.74188E+02 -9.85187E+01  1.96568E+02 -8.86767E+01  2.16337E+02
 -8.91951E+01  2.36596E+02 -9.67309E+01  2.45166E+02 -9.74559E+01  2.48038E+02 -1.01446E+02  2.44303E+02
 -1.09070E+02  2.38898E+02 -1.06636E+02  2.25659E+02 -9.51255E+01  2.06533E+02 -7.63666E+01  1.84076E+02
 -5.40065E+01  1.79438E+02 -1.84283E+01  1.73732E+02  9.66418E+00  1.68425E+02  2.79099E+01  1.85607E+02
  3.52702E+01  1.94519E+02  3.95658E+01  1.99927E+02  4.66984E+01  2.05057E+02  3.62295E+01  2.02281E+02
  3.65845E+01  1.89007E+02  4.71493E+01  1.74142E+02  4.92726E+01  1.59449E+02  7.26234E+01  1.44774E+02
  9.18985E+01  1.40986E+02  1.16047E+02  1.35330E+02  1.27576E+02  1.47472E+02  1.23682E+02  1.56934E+02
  1.20109E+02  1.57779E+02  1.15749E+02  1.62804E+02  1.06903E+02  1.58104E+02  9.58812E+01  1.42747E+02
  9.59397E+01  1.21577E+02  9.86763E+01  9.91440E+01  1.00808E+02  8.59126E+01  1.11795E+02  6.04699E+01
  1.17875E+02  5.13598E+01  1.39854E+02  4.15477E+01  1.45088E+02  4.35171E+01  1.55701E+02  3.61126E+01
  1.68624E+02  4.52105E+01  1.67426E+02  4.86957E+01  1.57834E+02  5.67578E+01  1.51436E+02  6.26471E+01
  1.38213E+02  5.81765E+01  1.25355E+02  4.70926E+01  1.21235E+02  3.56654E+01  1.14333E+02  2.21638E+01
  1.14032E+02  1.10272E+01  1.18467E+02 -2.79021E+00  1.20496E+02  2.05453E+00  1.21631E+02  2.28177E+00
  1.26909E+02  2.39611E+00  1.11731E+02  5.89434E+00  1.00116E+02 -4.55224E+00  8.85549E+01 -1.08074E+01
  7.59059E+01 -1.29558E+01  7.20478E+01 -3.14748E+01  7.62480E+01 -4.60677E+01  8.27480E+01 -6.09655E+01
  8.79230E+01 -6.46805E+01  9.59307E+01 -5.93079E+01  1.06724E+02 -6.02456E+01  1.11318E+02 -5.13367E+01
  1.06173E+02 -3.72746E+01  9.32674E+01 -2.80768E+01  7.81985E+01 -2.53216E+01  6.98714E+01 -1.90239E+01
  4.81435E+01 -1.72527E+01  3.82343E+01 -2.51257E+01  2.38377E+01 -4.20693E+01  2.04807E+01 -5.18808E+01
  2.81680E+01 -6.38179E+01  2.79955E+01 -7.80839E+01  3.55318E+01 -7.90935E+01  5.11745E+01 -7.72167E+01
  5.61222E+01 -6.94407E+01  6.21351E+01 -6.43335E+01  5.89230E+01 -5.43296E+01  4.80078E+01 -4.71763E+01
  4.78043E+01 -3.76382E+01  4.01944E+01 -3.47382E+01  2.94862E+01 -3.91778E+01  2.99389E+01 -4.31047E+01
  2.88796E+01 -4.51538E+01  3.20796E+01 -3.41748E+01  3.80925E+01 -2.94965E+01  4.12256E+01 -2.31034E+01
  2.86520E+01 -1.78144E+01  2.97303E+01 -7.53895E-02  1.08853E+01 -1.51455E+00  4.13565E+00 -5.15495E-01
 -7.95950E+00 -2.00074E+00 -1.04874E+01 -7.73391E+00 -1.46894E+01 -1.55643E+01 -1.67536E+01 -2.27595E+01
 -2.12298E+01 -2.67989E+01 -1.22129E+01 -3.41306E+01 -1.82722E+00 -3.46303E+01  7.07908E+00 -4.12593E+01
  1.07139E+01 -2.70707E+01  1.61200E+01 -1.60208E+01  1.70455E+01 -7.59592E+00  1.02417E+01 -2.05183E+00
  2.82782E+00  1.28953E+00  1.44199E+00  2.91426E-01 -7.23184E+00 -1.16308E+00 -3.45398E+00 -1.27342E+01
 -1.34984E+00 -7.81753E+00 -3.01934E-01 -1.83119E+01  1.03592E+01 -1.37855E+01  1.60043E+01 -1.42132E+01
  1.91283E+01 -6.94170E-01  1.11130E+01 -1.45545E+00  1.27936E+01  5.87970E+00  6.85616E+00  1.20866E+01
 -4.19025E+00  1.35414E+01 -8.35150E+00  2.39838E+00 -1.00210E+01 -5.46068E+00 -2.09429E+00 -4.12312E+00
  2.45349E+00 -1.62338E+01  2.59901E+00 -1.49068E+01  1.70172E+01 -2.25707E+01  1.99770E+01 -1.35804E+01
  3.33870E+01 -5.20789E+00  3.28904E+01  3.83426E+00  3.72923E+01  1.39805E+01  3.42333E+01  1.68902E+01
  2.86680E+01  2.95520E+01  2.11672E+01  3.11037E+01  5.43915E+00  2.39071E+01 -3.76297E+00  1.98790E+01
  3.29041E+00  1.04651E+01 -6.23439E+00  1.02206E+01  7.56814E-01  4.50466E+00  6.48971E+00 -4.35066E+00
  1.07103E+01 -9.66814E+00  2.48429E+01  1.32685E+00  2.45898E+01  5.81950E+00  2.54421E+01  5.90791E+00
  2.48390E+01  7.36706E+00  1.63125E+01  1.18403E+01  1.96578E+01  1.28696E+01  1.20492E+01  1.26355E+01
  1.59727E+01  5.75353E+00  1.03198E+01  8.80162E+00  1.39595E+01  1.00393E+01  1.52328E+01  5.45122E+00
  1.93769E+01  1.32916E+00  1.30681E+01  8.67534E+00  1.46343E+01  1.50255E+01  1.65257E+01  1.30416E+01
  9.97266E+00  1.45383E+01  8.66472E+00  1.23043E+01  7.82795E-02  1.20654E+01  2.78461E-02  1.96350E+00
 -1.12392E+00 -9.09880E+00  1.86630E+00 -1.11605E+01  1.03258E+01 -2.08964E+01  2.12008E+01 -1.47198E+01
  2.34882E+01 -2.38802E+01  3.06085E+01 -1.63077E+01  3.25768E+01 -1.01335E+01  3.67162E+01 -1.97674E+00
  3.27376E+01  7.59166E+00  2.65527E+01  1.09516E+01  1.71987E+01  1.28852E+01  1.69389E+01  5.10681E+00
  8.61303E+00 -1.38747E+00  1.34302E+01 -5.57313E-02  1.32086E+01 -3.03782E+00  1.85444E+01 -4.48844E+00
  2.22778E+01 -5.10731E+00  2.46728E+01  7.11614E-02  2.45500E+01  4.67471E+00  2.68699E+01  5.50194E+00
  1.90806E+01  1.49073E+01  1.41535E+01  1.50742E+01  1.14862E+01  6.72348E+00  7.31284E+00  1.18118E+01
  8.87908E+00 -1.27646E+00  1.11709E+01 -6.97898E+00  1.05053E+01 -1.78194E+00  1.00129E+01 -1.20892E+01
  2.26417E+01 -2.17560E+00  2.44129E+01 -3.13927E+00  2.26692E+01 -1.76726E+00  2.81986E+01  8.04930E+00
  2.30423E+01  1.33089E+01  1.80292E+01  1.92781E+01  1.16932E+01  1.23502E+01 -1.70501E+00  6.51243E+00
 -5.16805E+00  8.10764E+00  1.21794E+00 -5.67966E+00  1.12445E+00 -1.23769E+01  9.87613E-01 -1.06717E+01
  6.75967E+00 -1.81238E+01  1.67248E+01 -2.10337E+01  2.81231E+01 -1.24804E+01  2.64412E+01 -5.20148E+00
  2.40981E+01 -1.32601E+00  2.33054E+01 -1.43302E+00  1.71522E+01  5.46593E+00  1.66872E+01  5.66454E+00
  1.27742E+01  4.19918E+00  9.50014E+00  8.98615E+00  2.36050E+00  8.35775E+00  3.15956E+00  4.11148E+00
  9.05348E+00 -2.23303E+00  1.43075E+01 -4.78532E+00  1.37280E+01 -7.17899E+00  1.63521E+01 -1.30990E+00
  9.72437E+00 -6.06370E+00  8.94402E+00  3.25355E+00  8.42731E+00 -1.82686E+00  1.27573E+01  3.38791E+00
  2.13491E+00 -2.32685E+00  2.34648E+00 -1.38768E+00  1.05606E+01 -1.33137E+01  1.22922E+01 -1.27406E+01
  1.10271E+01 -1.59159E+01  1.52364E+01 -8.97628E+00  2.67480E+01 -5.05970E+00  2.28887E+01 -1.70708E+00
  2.38647E+01  3.80969E+00  2.98647E+01  3.09155E+00  2.18947E+01  1.57270E+01  1.03037E+01  1.11026E+01
  8.08200E+00  1.16725E+01  8.89078E+00  9.71332E+00  1.58919E+00  4.57381E+00  9.17887E+00  6.63921E+00
  2.59341E+00 -2.83453E+00  1.10318E+01 -5.82996E+00  1.33369E+01 -2.26970E+00  1.26386E+01 -4.18442E+00
  7.45934E+00  2.17693E+00  7.36594E+00  8.23668E+00  3.77357E+00  1.70678E+00  5.55962E+00 -8.19784E-01
 -1.25441E-01 -2.80730E+00  4.97152E+00  7.22435E-01  1.82112E+00 -2.18713E-01  7.58145E+00 -6.81036E+00
  5.64205E+00 -4.89519E+00  1.49834E+01 -2.42859E+00  9.12994E+00 -9.64774E+00  1.94084E+01 -3.62608E+00
  1.82315E+01 -1.47034E+00  1.17879E+01  4.73482E+00  1.37742E+01  2.55347E+00  5.91775E+00  8.46097E+00
  6.51179E+00  7.59318E+00 -4.36483E+00 -8.82038E-01 -1.83849E+00 -6.13478E+00  4.77452E-01 -6.66813E+00
  6.47948E+00 -1.53482E+01  1.43566E+01 -1.75790E+01  1.51584E+01 -1.51032E+01  1.92260E+01 -4.35809E+00
  2.05904E+01 -5.97275E-01  2.55416E+01 -5.95017E-01  2.14802E+01  4.79342E+00  2.02768E+01  4.39517E+00
  1.94309E+01  1.40806E+01  1.47249E+01  5.86731E+00  1.00703E+01  6.12938E+00  4.32856E+00  1.33285E+00
  8.86991E+00  4.98767E+00  7.01688E+00  1.94022E+00  4.49087E+00  6.08826E+00  6.39201E+00  5.45325E+00
  1.24012E+01  8.15385E+00  1.10565E+01  6.22471E+00  4.94030E+00  5.79435E+00 -1.36135E+00  2.09125E+00
  1.02968E+00 -6.66835E-01  3.42155E+00  1.93868E+00 -3.14143E+00 -2.64064E+00 -1.92220E+00 -6.80336E+00
