 $NMID ID='dataset11', FMTDAT='(8E13.5)'
 TRAMP=1, VOLUME=1 $END
  4.87564E+04  3.10419E+00  4.85130E+04 -4.55803E+00  4.82876E+04  1.60664E+00  4.80655E+04  8.94332E+00
  4.78236E+04 -1.62390E+01  4.75921E+04 -8.70716E+00  4.73744E+04  1.10822E+01  4.71506E+04 -1.35720E+01
  4.69331E+04  1.10318E+01  4.67031E+04  1.66936E+01  4.65079E+04  8.38153E+00  4.62779E+04  1.33629E+01
  4.60709E+04 -1.37112E+00  4.58622E+04 -1.19019E+00  4.56166E+04 -3.83778E+00  4.54075E+04 -4.07463E-01
  4.52054E+04 -4.00485E+00  4.50006E+04 -1.36745E+01  4.47848E+04  3.58286E+00  4.45793E+04  1.04918E+01
  4.43446E+04  1.61760E+01  4.41531E+04 -1.22792E+01  4.39467E+04 -5.16825E+00  4.37452E+04 -1.21186E+01
  4.35243E+04  9.18007E+00  4.33361E+04  1.50058E+01  4.31337E+04  1.43940E+01  4.29022E+04  1.42706E+01
  4.27260E+04  1.08742E+01  4.25206E+04 -6.09889E+00  4.23092E+04 -1.52558E+01  4.21093E+04 -8.36795E+00
  4.19062E+04 -1.12990E+01  4.17317E+04  5.36762E+00  4.15431E+04 -3.10856E+00  4.13291E+04  1.05143E+01
  4.11332E+04  1.06973E+01  4.09406E+04 -6.64757E-01  4.07404E+04 -1.10377E+01  4.05668E+04 -1.20294E+01
  4.03715E+04 -8.50106E+00  4.01885E+04 -1.70756E-01  3.99880E+04 -1.69792E+01  3.97989E+04 -6.26496E+00
  3.96155E+04 -1.49534E+01  3.94334E+04 -1.43877E+01  3.92414E+04 -1.00994E+01  3.90513E+04  1.40763E+01
  3.88894E+04 -8.34730E+00  3.86934E+04  9.21532E+00  3.85184E+04  2.75113E+00  3.83154E+04  1.63404E+01
  3.81363E+04  1.41592E+01  3.79799E+04  3.25799E+00  3.77766E+04 -3.50016E+00  3.76274E+04  4.85339E+00
  3.74502E+04  8.12243E+00  3.72779E+04 -9.89271E+00  3.70753E+04 -1.69187E+01  3.69116E+04 -2.45191E-01
  3.67311E+04 -9.68482E+00  3.65687E+04  1.19605E+01  3.64036E+04 -5.73660E+00  3.62242E+04 -1.62476E+01
  3.60490E+04 -3.26599E+00  3.58928E+04 -3.76673E+00  3.57104E+04 -3.18293E+00  3.55547E+04 -1.14867E+00
  3.53701E+04  1.69303E+01  3.52178E+04  7.45824E+00  3.50492E+04  5.65941E+00  3.48822E+04  6.77530E+00
  3.47228E+04 -1.21942E+01  3.45589E+04 -1.15272E+01  3.44038E+04  5.88534E+00  3.42301E+04  1.52187E+01
  3.40552E+04  1.19689E+01  3.39211E+04 -1.43784E+01  3.37406E+04  1.52882E+01  3.35827E+04 -1.28355E+01
  3.34200E+04  1.44541E+01  3.32835E+04 -6.94782E+00  3.31218E+04  1.62715E+01  3.29750E+04 -1.31354E+00
  3.28039E+04  1.20066E+01  3.26419E+04 -9.42184E+00  3.24914E+04 -1.51842E+01  3.23400E+04  1.70996E+01
  3.22084E+04  3.24289E+00  3.20463E+04 -9.30834E+00  3.18808E+04 -1.39395E+01  3.17528E+04  2.29817E+00
  3.15817E+04  3.70117E+00  3.14352E+04  2.26215E+00  3.13008E+04  5.41124E+00  3.11388E+04 -6.18479E+00
  3.09886E+04 -3.23350E+00  3.08718E+04 -6.41697E-01  3.07293E+04  9.04235E+00  3.05598E+04  1.24703E+01
  3.04418E+04  4.76955E+00  3.02804E+04 -6.38969E+00  3.01263E+04  2.91138E+00  2.99943E+04  3.08688E-01
  2.98481E+04 -1.32221E+01  2.97334E+04  3.66986E+00  2.95873E+04  1.62755E+01  2.94243E+04  1.54607E+01
  2.93154E+04 -1.51381E+01  2.91497E+04 -9.84928E+00  2.90292E+04 -1.55349E+01  2.88963E+04 -1.19362E+01
  2.87578E+04 -7.33034E+00  2.86041E+04 -1.12023E+01  2.84965E+04  1.24135E+01  2.83440E+04 -1.46269E+00
  2.82101E+04 -4.90222E+00  2.80908E+04  7.49882E-02  2.79592E+04  7.69207E-01  2.78222E+04 -1.56714E+01
  2.76774E+04 -1.39098E+01  2.75498E+04 -3.15404E+00  2.74268E+04  1.62047E+01  2.73162E+04  4.15695E+00
  2.71634E+04  1.44502E+01  2.70527E+04 -1.28940E+01  2.69300E+04  1.49070E+00  2.67875E+04 -1.37649E+01
  2.66488E+04  1.54803E+01  2.65450E+04  9.66511E-02  2.64062E+04  1.70983E+01  2.62748E+04  9.31266E+00
  2.61753E+04  8.26105E+00  2.60445E+04  3.87233E+00  2.59245E+04 -5.10981E+00  2.58157E+04  1.00010E+01
  2.56672E+04  6.15762E+00  2.55739E+04 -2.26527E+00  2.54457E+04  6.59255E+00  2.53151E+04  1.65645E+01
  2.51925E+04  2.02413E+00  2.50950E+04  1.15156E+01  2.49664E+04  1.14799E+01  2.48377E+04 -9.50031E+00
  2.47220E+04 -1.16414E+01  2.46166E+04  1.20307E+01  2.45053E+04  1.12067E+01  2.43879E+04  3.65096E+00
  2.42734E+04  2.53229E+00  2.41384E+04  1.57424E+01  2.40226E+04 -4.20139E+00  2.39386E+04  5.46742E+00
  2.38188E+04 -9.95230E+00  2.36892E+04 -1.19366E+01  2.35841E+04 -2.87157E+00  2.34898E+04 -1.66639E+01
  2.33672E+04 -1.44169E+01  2.32491E+04  1.45316E+01  2.31361E+04  6.83716E+00  2.30467E+04 -4.33000E+00
  2.29269E+04 -5.03937E+00  2.28153E+04 -5.14121E+00  2.27029E+04  2.58127E+00  2.26029E+04 -1.57833E+01
  2.25136E+04 -1.33944E+01  2.23986E+04  1.35602E+01  2.22844E+04 -8.54710E+00  2.21957E+04 -1.12549E+00
  2.20976E+04  2.87675E+00  2.19831E+04  1.45413E+01  2.18941E+04  2.77236E+00  2.17879E+04 -8.95807E+00
  2.16633E+04 -1.18794E+01  2.15572E+04  1.13443E+01  2.14779E+04 -6.22007E+00  2.13681E+04 -3.67223E+00
  2.12802E+04 -4.59921E-01  2.11829E+04  7.34502E+00  2.10697E+04  1.11436E+00  2.09626E+04 -5.15219E+00
  2.08766E+04  6.20394E+00  2.07881E+04  4.51294E+00  2.06819E+04  1.55029E+01  2.05837E+04 -1.12100E+00
  2.04703E+04  6.05237E+00  2.03867E+04  9.75056E+00  2.02778E+04 -6.80639E+00  2.02089E+04 -1.07271E+01
  2.00835E+04 -1.13975E+01  2.00100E+04 -7.28324E+00  1.99202E+04  3.63668E+00  1.98287E+04  3.20452E+00
  1.97111E+04 -1.12604E+01  1.96156E+04 -4.21239E+00  1.95305E+04  3.37724E+00  1.94628E+04 -4.27163E+00
  1.93572E+04  7.47450E+00  1.92567E+04  1.29432E+01  1.91842E+04 -6.04008E+00  1.90996E+04  1.96920E+00
  1.90008E+04  1.59941E+01  1.89082E+04  1.56699E+01  1.88095E+04  1.30292E+01  1.87100E+04 -1.42185E+01
  1.86246E+04  1.67634E+00  1.85580E+04  1.21837E+01  1.84717E+04 -3.10388E+00  1.83817E+04 -3.54112E+00
  1.82946E+04 -1.27572E+01  1.82107E+04 -1.26373E+01  1.81319E+04  1.07157E+01  1.80187E+04  1.46440E+01
  1.79544E+04  1.41501E+01  1.78721E+04  2.28255E+00  1.77756E+04  3.87021E+00  1.76983E+04  6.37639E+00
  1.75967E+04  1.11491E+01  1.75428E+04 -1.01703E+01  1.74640E+04  1.50154E+01  1.73529E+04  1.20884E+01
  1.72840E+04 -8.80141E+00  1.72088E+04 -1.28533E+01  1.71154E+04 -5.88803E+00  1.70423E+04  1.47984E+01
  1.69517E+04 -8.20502E+00  1.68704E+04 -1.30163E+01  1.68138E+04 -1.26171E+01  1.67313E+04  1.49065E+01
  1.66419E+04 -1.65634E+01  1.65757E+04 -7.14718E-01  1.65028E+04  3.61237E+00  1.64169E+04 -1.51276E+00
  1.63225E+04  1.31197E+01  1.62687E+04 -1.21445E+01  1.61743E+04 -2.76154E-01  1.61017E+04 -4.09353E+00
  1.60173E+04  1.34052E+01  1.59425E+04  1.25101E+01  1.58824E+04 -1.25549E+01  1.58107E+04  1.24459E+00
  1.57274E+04  5.96361E+00  1.56576E+04 -3.55072E+00  1.55665E+04  1.46685E+00  1.55174E+04 -1.46576E+01
  1.54385E+04 -6.53774E+00  1.53520E+04 -8.02701E+00  1.52869E+04 -2.25292E+00  1.52258E+04  6.57228E+00
  1.51547E+04 -1.60844E+01  1.50866E+04 -4.01230E+00  1.49960E+04  1.69629E+01  1.49283E+04 -1.64881E+01
  1.48579E+04 -5.37505E+00  1.47979E+04  1.34632E+01  1.47325E+04 -1.02943E+01  1.46626E+04  1.02498E+01
  1.46017E+04 -1.01575E+01  1.45186E+04 -1.45825E+01  1.44516E+04  1.63463E+01  1.43771E+04 -1.25629E+00
  1.43020E+04  1.51338E+01  1.42610E+04  8.54811E+00  1.41906E+04 -4.45523E+00  1.41102E+04 -8.49028E+00
  1.40367E+04  1.30281E+01  1.39814E+04  1.11684E+01  1.39155E+04  1.11372E+00  1.38342E+04 -5.80027E-01
  1.37757E+04 -4.65904E+00  1.37225E+04 -7.39237E+00  1.36633E+04  2.59290E-01  1.35920E+04  8.85537E+00
  1.35371E+04  1.01763E+01  1.34506E+04 -7.21074E+00  1.34174E+04  3.97420E+00  1.33420E+04 -7.62613E+00
  1.32720E+04  1.54970E+01  1.31990E+04  1.49832E+01  1.31475E+04 -5.36580E+00  1.30856E+04  6.34621E+00
  1.30428E+04  6.22241E+00  1.29639E+04  1.51935E+01  1.29084E+04  3.97363E-01  1.28383E+04  1.95554E-01
  1.27707E+04 -8.37518E+00  1.27358E+04 -1.15387E+01  1.26731E+04 -1.17753E+01  1.26051E+04 -8.75115E+00
  1.25299E+04 -7.31995E+00  1.24716E+04  6.50383E-01  1.24228E+04 -8.25433E-01  1.23761E+04  1.18839E+01
  1.22972E+04 -1.53528E+01  1.22646E+04  3.52057E+00  1.22120E+04 -2.77535E+00  1.21468E+04  1.45125E+01
  1.20924E+04  2.21948E+00  1.20159E+04  2.10280E+00  1.19772E+04 -1.65808E+01  1.19186E+04  7.43805E+00
  1.18431E+04  1.22187E+01  1.17843E+04 -7.46029E+00  1.17497E+04 -1.59842E+01  1.16838E+04  9.06246E+00
  1.16435E+04  2.99526E+00  1.15871E+04  7.98488E+00  1.15200E+04  2.27490E+00  1.14737E+04  4.00607E-02
  1.14163E+04 -2.39229E+00  1.13617E+04 -3.22608E+00  1.13191E+04  1.36797E+01  1.12721E+04  1.23133E+01
  1.11967E+04 -1.42448E+01  1.11493E+04  5.26461E+00  1.11034E+04  6.87389E+00  1.10348E+04  1.17210E+01
  1.09835E+04 -6.13804E+00  1.09592E+04  1.22130E+01  1.08959E+04 -5.52263E+00  1.08549E+04  7.52537E+00
  1.07931E+04  9.68867E+00  1.07509E+04 -1.06695E+01  1.06738E+04 -7.18954E+00  1.06256E+04  4.51243E+00
  1.05781E+04 -1.02950E+01  1.05447E+04 -1.12952E+01  1.04905E+04  7.72776E+00  1.04440E+04 -7.24728E+00
  1.03868E+04  4.54167E+00  1.03366E+04  4.27966E+00  1.02954E+04  2.36714E+00  1.02420E+04  1.64435E+01
  1.02025E+04 -1.32572E+01  1.01409E+04 -1.69991E+01  1.01076E+04 -1.20700E+01  1.00676E+04 -1.35984E+01
  9.99155E+03 -7.45449E+00  9.96377E+03 -4.86412E+00  9.91439E+03 -4.39484E+00  9.85055E+03 -3.83154E+00
  9.81463E+03  7.95950E+00  9.75904E+03  9.32664E-01  9.74265E+03 -1.00054E+01  9.67493E+03  6.61927E+00
  9.64058E+03 -1.05595E+01  9.58578E+03  1.28974E+01  9.55150E+03  1.30855E+01  9.48928E+03  1.37333E+01
  9.46268E+03  7.93034E+00  9.40535E+03 -5.44336E+00  9.36786E+03  4.43785E+00  9.33187E+03 -1.08112E+01
  9.27971E+03  4.75609E+00  9.24281E+03  3.49775E+00  9.19988E+03 -6.23130E+00  9.14515E+03 -1.45706E+01
  9.09270E+03  7.52624E+00  9.05411E+03 -1.41664E+01  9.02233E+03 -7.21848E+00  8.96861E+03  1.04476E+01
  8.92190E+03  2.32085E+00  8.90444E+03 -9.67396E+00  8.86050E+03  1.01281E+01  8.80575E+03  1.34757E+01
  8.77519E+03 -5.91486E+00  8.72681E+03  1.18605E+01  8.68618E+03  1.35154E+01  8.63130E+03 -1.44615E+01
  8.59228E+03 -5.82952E+00  8.57235E+03 -1.54884E+01  8.53901E+03 -1.38476E+01  8.49936E+03 -1.11627E+01
  8.43637E+03 -4.61318E-01  8.41605E+03 -1.00407E+01  8.36553E+03 -1.63522E+01  8.32393E+03 -1.09950E+01
