 $NMID ID='dataset1', FMTDAT='(8E13.5)'
 TRAMP=1, VOLUME=1 $END
  2.67478E+02  1.03393E+02  4.75040E+02  2.08881E+02  3.21309E+02  3.62253E+02  1.28034E+02  4.27010E+02
 -4.51931E+01  3.82595E+02 -1.69449E+02  2.83182E+02 -2.14828E+02  1.46282E+02 -1.94571E+02  2.11888E+01
 -1.21136E+02 -5.85018E+01 -4.53156E+01 -6.90955E+01  2.27657E+01 -4.08200E+01  4.68668E+01 -2.60305E-01
  4.64905E+01  5.43599E+01  1.15958E+01  7.86221E+01 -1.88549E+01  8.80046E+01 -5.50093E+01  7.90447E+01
 -7.08817E+01  4.98472E+01 -8.05211E+01  2.45860E+01 -8.82959E+01  4.22623E+00 -8.11650E+01 -2.10381E+01
 -7.93546E+01 -4.20200E+01 -5.34946E+01 -5.78438E+01 -3.12167E+01 -7.45499E+01 -2.77476E+00 -7.94514E+01
  2.14857E+01 -5.99902E+01  4.44004E+01 -3.84068E+01  5.53075E+01 -4.53777E+00  3.95618E+01  2.49501E+01
  7.12641E+00  3.83453E+01 -2.20719E+01  3.56729E+01 -4.82698E+01  1.82014E+01 -5.53821E+01 -7.00572E+00
 -5.17268E+01 -4.98477E+01 -2.79668E+01 -7.20692E+01 -1.11537E+00 -7.96537E+01  3.47252E+01 -6.99776E+01
  5.81110E+01 -5.13945E+01  7.17524E+01 -3.07225E+01  7.91398E+01 -7.93005E+00  6.84697E+01  2.11950E+01
  5.19292E+01  3.95428E+01  4.57216E+01  4.87659E+01  2.83329E+01  5.87728E+01  5.74718E+00  4.77738E+01
 -1.07950E+01  4.87627E+01 -2.40590E+01  2.77524E+01 -2.60478E+01  1.78853E+01 -1.74708E+01  3.75462E+00
 -7.31877E+00 -9.14323E+00  8.60837E+00 -1.62333E+00  1.77240E+01  5.12840E+00  1.65543E+01  2.85948E+01
  7.18400E+00  3.82814E+01 -1.43800E+01  4.28350E+01 -3.93441E+01  3.76416E+01 -6.12568E+01  7.03052E+00
 -5.72065E+01 -1.74117E+01 -4.36695E+01 -4.74674E+01 -7.96548E+00 -6.37724E+01  2.52355E+01 -5.63081E+01
  5.38411E+01 -3.39252E+01  5.83273E+01 -6.43726E+00  5.83322E+01  3.27738E+01  3.60488E+01  5.77663E+01
  4.49067E+00  6.05678E+01 -2.49659E+01  5.79725E+01 -4.78096E+01  3.33766E+01 -4.56986E+01  1.58025E+01
 -4.73425E+01  1.94206E+00 -3.66759E+01 -1.37837E+01 -2.92502E+01 -2.96652E+01 -1.60835E+01 -2.78166E+01
 -4.62727E+00 -3.06865E+01  7.26486E-01 -2.35404E+01  4.55082E+00 -1.70029E+01  1.16032E+01 -9.25872E+00
  1.82089E+01 -3.56048E+00  7.07572E+00  1.34458E+01 -5.55471E+00  9.67292E+00 -1.47892E+01  1.42089E+01
 -2.29140E+01  1.92287E+00 -3.10095E+01 -1.48721E+01 -1.91227E+01 -3.11258E+01 -1.72068E+00 -4.35288E+01
  1.24294E+01 -4.12025E+01  3.80100E+01 -3.05438E+01  4.56031E+01 -1.24569E+01  4.28033E+01  1.11211E+01
  3.14362E+01  3.29360E+01  1.17958E+01  4.39151E+01 -1.29119E+01  3.19405E+01 -2.78857E+01  1.74758E+01
 -3.29233E+01 -3.76057E+00 -3.10693E+01 -2.15702E+01 -8.51540E+00 -3.80112E+01  1.68950E+01 -3.84810E+01
  2.64314E+01 -2.63016E+01  4.63887E+01 -1.26937E+01  4.91231E+01  8.24956E+00  4.46929E+01  2.92418E+01
  3.02458E+01  4.22318E+01  9.74594E+00  5.16639E+01 -1.15374E+01  5.03797E+01 -2.26918E+01  4.35595E+01
 -4.06419E+01  3.28535E+01 -4.63107E+01  1.51465E+01 -4.02881E+01  6.69920E-02 -3.72417E+01 -1.49771E+01
 -2.46340E+01 -3.03857E+01 -1.17604E+01 -3.64764E+01  1.11432E+01 -2.85965E+01  1.78941E+01 -2.56455E+01
  2.40911E+01 -1.08397E+01  2.11018E+01  1.08723E+01  2.62703E+00  9.81644E+00 -3.56259E+00  1.04987E+01
 -1.12905E+01  1.15440E+01 -2.08334E+01 -7.49701E+00 -1.29689E+01 -1.75442E+01 -8.90401E+00 -2.82637E+01
  1.44296E+01 -2.81358E+01  1.85090E+01 -1.54770E+01  2.48682E+01  6.47328E-01  3.07584E+01  1.40486E+01
  1.90017E+01  2.39441E+01  1.06564E+01  2.44474E+01 -1.22100E+01  2.99214E+01 -2.35287E+01  2.14052E+01
 -2.59948E+01  1.51038E+01 -3.02663E+01 -6.54294E-01 -2.96450E+01 -1.12664E+01 -2.14756E+01 -2.70612E+01
 -1.22700E+01 -3.08321E+01 -1.98564E+00 -3.00065E+01  1.75166E+01 -2.45723E+01  2.64031E+01 -1.85648E+01
  3.22852E+01 -9.74056E+00  3.28916E+01 -5.86305E-01  2.25042E+01  8.34825E+00  2.30182E+01  2.23641E+01
  9.10788E+00  2.07954E+01 -1.19340E+00  1.91000E+01 -7.24777E+00  2.14762E+01 -1.71892E+01  5.23109E+00
 -9.29542E+00  3.85496E+00 -2.83833E+00 -1.58754E+00  4.27087E+00  5.32738E-01  3.05970E+00  4.71694E+00
 -6.62392E-01  8.59428E+00  9.71610E-01  1.50718E+01 -1.24925E+01  1.16774E+01 -2.20767E+01  1.17578E+01
 -2.77985E+01  2.86337E+00 -3.05193E+01 -6.16742E+00 -2.03679E+01 -1.04916E+01 -1.32227E+01 -2.75773E+01
  6.23540E-01 -2.52615E+01  9.79296E+00 -2.65397E+01  2.17769E+01 -2.34800E+01  2.20649E+01 -1.43015E+01
  2.39789E+01 -3.24375E+00  1.79345E+01  1.85475E+01  1.63871E+01  2.78999E+01 -4.05841E+00  2.89987E+01
 -1.80589E+01  2.80498E+01 -2.46199E+01  1.86808E+01 -2.96402E+01  6.81325E+00 -3.32260E+01 -1.15181E+01
 -2.28808E+01 -2.38005E+01 -1.76676E+01 -3.30879E+01  1.58051E+00 -3.57702E+01  6.55734E+00 -2.76875E+01
  1.73851E+01 -2.70989E+01  2.49280E+01 -1.59369E+01  1.84873E+01 -7.37540E+00  1.96217E+01  3.03860E+00
  1.29334E+01  9.74209E-01  8.79637E+00 -6.18363E-01  5.48845E+00 -2.03098E+00  1.42068E+01 -6.54927E+00
  9.93262E+00  1.48378E+00  1.52560E+01 -4.18602E-01  2.57781E+01  8.01623E+00  2.56752E+01  1.13785E+01
  2.20076E+01  2.23557E+01  1.67657E+01  2.60069E+01  3.55300E+00  3.14371E+01 -9.20504E+00  2.75952E+01
 -2.04133E+01  2.30969E+01 -2.60130E+01  1.42800E+01 -2.75804E+01  1.05882E+01 -3.05615E+01 -3.92914E+00
 -2.48131E+01 -7.28141E+00 -1.77162E+01 -2.05687E+01 -8.34843E+00 -2.57806E+01  2.66665E+00 -1.79104E+01
  1.32411E+01 -1.93369E+01  1.30689E+01 -4.38969E+00  1.40066E+01 -2.27667E+00  9.93977E+00  4.20190E+00
  5.19755E+00  7.64498E+00 -9.46464E+00  5.65464E+00 -7.74476E+00  7.43100E+00 -1.09307E+01 -3.84194E+00
 -7.01365E+00 -9.81470E+00 -9.10227E+00 -9.18222E+00  1.83786E+00 -7.85079E+00  8.60978E+00 -7.47376E+00
  6.80060E+00 -3.83858E+00  6.75115E+00  5.41364E-01  3.28041E+00  9.16170E+00 -3.30618E-01  4.88406E+00
 -5.94360E+00  6.21007E+00 -1.02756E+01  8.60176E+00 -1.20452E+01 -4.04109E+00 -1.86603E+01 -6.23247E+00
 -1.40043E+01 -1.26030E+01 -4.98602E+00 -1.77334E+01  2.93709E+00 -2.56554E+01  1.90724E+01 -2.34071E+01
  1.72086E+01 -1.70267E+01  2.37264E+01 -8.13749E+00  2.60365E+01  9.55926E+00  2.69908E+01  1.47140E+01
  1.59744E+01  1.93850E+01  3.14609E+00  2.44051E+01 -7.27754E+00  2.19708E+01 -7.10222E+00  1.99274E+01
 -1.03192E+01  8.16579E+00 -2.05420E+01  3.81882E+00 -7.51287E+00 -1.04786E+01 -5.49249E+00 -8.13582E+00
  3.17541E+00 -1.27026E+01  7.72786E+00 -8.51955E+00  1.24780E+01 -4.11384E+00  9.01544E+00 -2.36752E+00
  4.37591E+00  3.19625E+00  3.18555E+00  4.94646E+00  1.67710E+00  4.57520E+00  1.08726E+00  3.00928E+00
 -5.94192E+00  9.55127E+00 -7.44656E+00  5.37450E+00 -3.94827E+00 -3.35136E+00 -7.03406E-02 -4.08775E+00
  5.00192E+00  5.47152E+00 -1.47349E+00  6.72383E+00 -4.04118E+00  7.10211E+00  1.13886E+00  1.07402E+01
 -7.38343E+00  8.09685E+00 -1.74573E+01  1.14189E+01 -1.99247E+01  4.23275E+00 -1.88238E+01  2.34216E+00
 -1.60498E+01 -1.34832E+01 -1.40561E+01 -1.13614E+01 -1.20571E+01 -1.81294E+01  2.87613E+00 -2.59001E+01
  1.18516E+01 -1.57352E+01  1.03068E+01 -1.25074E+01  1.48818E+01 -5.67719E+00  1.22743E+01 -1.86821E+00
  1.32092E+01  8.97140E+00  7.16273E+00  7.19186E+00 -2.73671E+00  9.37653E+00 -6.06326E+00  8.04552E+00
 -4.78649E+00 -5.02062E+00 -6.60264E+00 -7.37332E+00 -4.85824E+00 -1.26877E+01  8.12226E+00 -7.64015E+00
  6.27580E+00 -6.09454E+00  1.15422E+01  4.14584E-01  9.26549E+00  2.68847E+00  1.37237E+01  1.26183E+01
  4.80076E+00  1.39696E+01 -3.62869E+00  1.51326E+01 -1.95756E+00  7.16527E+00 -6.26621E+00  6.67479E+00
 -6.62262E+00  5.14616E+00 -6.20626E+00 -4.64131E+00 -1.04066E+01 -3.46170E+00  2.16622E+00 -1.10079E+01
 -7.97412E-01 -8.79164E+00  1.25979E+01 -7.23258E+00  9.65564E+00 -2.09780E+00  8.15978E+00  1.13799E+01
  5.18834E+00  7.02969E+00 -1.61118E+00  1.57863E+01 -6.75124E+00  1.64737E+01 -1.54537E+01  9.64957E+00
 -1.64318E+01  7.13055E+00 -1.84737E+01 -1.50358E+00 -1.49268E+01 -4.30769E+00 -1.16563E+01 -1.84941E+01
 -5.52730E-01 -1.73838E+01  1.40644E+00 -1.51700E+01  8.81490E+00 -1.67870E+01  1.02816E+01 -8.34949E+00
  1.80146E+01 -6.54116E+00  1.30912E+01  2.78656E+00  1.15294E+01  1.33683E+01  6.03063E+00  6.15544E+00
  1.51994E+00  1.16481E+01 -9.17908E+00  1.00506E+01 -1.20051E+01  9.78890E-01 -1.12430E+01  5.64018E+00
 -1.09323E+01 -4.54889E+00 -5.73568E+00 -3.36642E+00 -2.37668E+00  6.81551E-01 -6.10474E-01 -5.82775E+00
  3.73110E+00 -3.31556E+00  1.89821E+00  3.03404E+00 -2.00763E-01 -9.90783E-02 -3.67680E+00  4.38773E+00
 -2.33741E+00  3.06285E+00 -4.26220E+00 -6.24117E+00 -9.57665E+00 -6.77177E+00 -3.04551E+00 -1.45337E+01
 -9.72755E-01 -1.68669E+01  5.53337E+00 -1.11611E+01  7.56684E+00 -1.16636E+01  2.06247E+01 -8.17511E+00
  1.66363E+01  5.62192E+00  9.65981E+00  1.32398E+01  1.16665E+01  1.22060E+01  5.60448E+00  1.29803E+01
 -2.62543E+00  7.82521E+00 -6.86884E+00  6.38185E+00 -6.44337E+00  8.90557E+00 -5.61332E+00  2.76501E-01
 -7.24719E+00  4.74403E+00 -4.05922E+00  2.51951E+00 -3.41002E+00  1.87238E-01 -2.74707E+00 -4.73281E+00
  5.00276E+00 -1.44161E+00 -5.01513E+00 -8.96340E-01  8.22012E-01  4.37399E+00 -2.97406E+00  4.40486E+00
 -7.62025E+00  6.98918E+00 -6.42810E+00 -2.18293E+00 -1.98615E+00 -6.16594E+00 -8.47879E+00 -8.10865E+00
  1.67180E-01 -2.20756E+00  4.24589E+00 -8.18531E+00  1.14289E+00 -9.10138E+00  2.67771E+00 -4.47921E+00
  2.40354E-01 -8.93823E-02  6.71211E+00  1.77634E+00  3.18902E+00  5.10080E+00 -8.42800E+00  1.67537E+00
 -5.03544E+00  1.08049E-01 -1.09097E+01 -2.42774E+00 -9.49844E+00 -8.15587E+00 -1.01118E+01 -1.43306E+01
 -6.18123E+00 -1.22385E+01 -1.32010E+00 -2.06487E+01  9.25288E+00 -1.71649E+01  1.44933E+01 -1.48916E+01
  1.78651E+01  7.07948E-01  1.23118E+01  1.02349E-01  1.45541E+01  3.99976E+00  8.08260E+00  5.36786E+00
  6.24716E+00  1.20813E+01  4.92111E+00  9.43488E+00 -1.58278E+00  1.37468E+01 -7.79873E+00  2.87052E+00
 -7.25509E+00 -6.20357E-01 -3.21113E-02  6.58776E+00 -4.98706E+00  1.64339E+00 -5.42112E+00  7.92916E+00
 -6.02046E+00 -1.10474E+00  1.14682E+00  5.97522E+00 -7.47647E+00  1.10831E+00 -5.64193E+00  4.92077E-01
 -5.46233E+00  3.13665E+00 -1.56034E+01 -3.33154E+00 -1.23267E+01 -9.22051E+00 -1.06365E+01 -8.45161E+00
