 $NMID ID='dataset15', FMTDAT='(8E13.5)'
 TRAMP=1, VOLUME=1 $END
  4.98939E+04  8.78650E+00  4.97159E+04 -5.27014E+00  4.94991E+04 -1.99304E+01  4.92141E+04 -2.27294E+01
  4.90020E+04 -7.65953E+00  4.87420E+04  2.98591E+01  4.85884E+04  1.63127E+01  4.82969E+04 -2.06622E+01
  4.81222E+04  6.10290E+01  4.78874E+04 -1.62080E+01  4.76053E+04 -5.21789E+01  4.74285E+04  8.83545E+00
  4.71331E+04  1.02237E+01  4.69312E+04 -8.31469E-01  4.67137E+04 -3.99407E+01  4.65804E+04  1.01220E+00
  4.63665E+04  6.32128E+01  4.60838E+04  2.81273E+01  4.58367E+04  3.88573E+01  4.56313E+04 -3.68378E+01
  4.53993E+04 -3.90242E+01  4.52268E+04 -5.49780E+01  4.49898E+04 -5.11099E+01  4.47715E+04 -4.13927E+01
  4.45660E+04 -3.47579E+01  4.44127E+04 -2.94841E+01  4.41246E+04  3.10889E+01  4.39879E+04 -1.39718E+01
  4.37348E+04  5.28750E+01  4.35060E+04  6.37288E+01  4.33640E+04 -7.03058E+00  4.31442E+04 -3.51465E+01
  4.29156E+04 -3.20839E+01  4.27776E+04  1.47876E+01  4.25280E+04 -6.26948E+01  4.23001E+04  5.89413E+01
  4.21991E+04 -1.54375E+01  4.19958E+04  2.54242E+01  4.16966E+04  4.98157E+01  4.15919E+04 -3.25632E+01
  4.13309E+04 -1.42814E+00  4.12201E+04  1.72898E+01  4.10245E+04  3.70374E+01  4.07744E+04  3.19593E+01
  4.05456E+04 -1.42121E+01  4.04386E+04  5.56430E+01  4.02614E+04 -4.76317E+00  3.99799E+04  4.88806E+01
  3.98332E+04 -6.32322E+01  3.96507E+04 -1.88497E+01  3.94782E+04  2.88949E+01  3.92679E+04  4.26734E+01
  3.90717E+04 -3.65509E+01  3.89092E+04 -2.61384E+01  3.86670E+04 -4.44546E+01  3.84926E+04  4.65401E+01
  3.83158E+04  3.45959E+01  3.81891E+04  4.81203E+01  3.79676E+04 -6.22658E+01  3.77815E+04  2.11631E+01
  3.76671E+04  6.11535E+01  3.75181E+04  4.14083E+01  3.73384E+04  7.84837E-01  3.71380E+04 -1.10289E+00
  3.69687E+04  2.28755E+01  3.67027E+04 -5.81250E+01  3.65237E+04  2.75410E+01  3.64228E+04  5.35566E+01
  3.62053E+04  1.05002E+01  3.60883E+04 -4.30031E+01  3.58501E+04 -6.01303E+01  3.56975E+04  4.36884E+00
  3.56050E+04 -5.94317E+01  3.53711E+04  8.15210E+00  3.51760E+04  5.33493E+01  3.50297E+04  2.77865E+01
  3.48747E+04 -8.77926E+00  3.46880E+04  5.47244E+01  3.46202E+04 -2.10234E+01  3.44033E+04  5.02117E+01
  3.42118E+04  3.48255E+01  3.41448E+04  1.85479E+01  3.39446E+04 -5.18314E+01  3.37728E+04 -3.60387E+01
  3.36008E+04  1.17243E+01  3.34048E+04  4.29907E+01  3.33458E+04 -1.35867E+01  3.31181E+04 -1.08316E+01
  3.30249E+04  5.73230E+01  3.27657E+04 -3.05348E+01  3.27181E+04  4.37163E+01  3.24654E+04 -5.17055E+01
  3.23827E+04 -2.43098E+01  3.22163E+04  4.96239E+01  3.21083E+04  3.55888E+01  3.19694E+04 -3.06997E+01
  3.17091E+04 -3.37660E+01  3.16575E+04  1.26473E+01  3.14954E+04 -3.72917E+00  3.12759E+04 -6.12742E+01
  3.12126E+04  2.07977E+01  3.10024E+04 -6.12478E+01  3.08953E+04  2.91556E+01  3.07847E+04 -5.34993E+00
  3.05476E+04  4.60300E+01  3.04899E+04 -1.69052E+01  3.02537E+04  8.91390E+00  3.01653E+04  5.77606E+01
  3.00375E+04 -4.74533E+01  2.99009E+04  4.07023E+01  2.97382E+04  1.64370E+01  2.95315E+04  1.08368E+01
  2.94866E+04  6.20821E+00  2.93496E+04 -6.06120E+01  2.91868E+04 -5.04596E+01  2.90457E+04 -2.06996E+01
  2.89199E+04 -5.01566E+01  2.87131E+04  8.68568E+00  2.85852E+04 -4.71785E+01  2.84400E+04  5.30309E+00
  2.83498E+04  5.27753E+00  2.82425E+04  5.75860E+01  2.80641E+04  5.58500E+01  2.79637E+04  6.70967E+00
  2.78657E+04  6.09544E+01  2.76779E+04 -1.36885E-01  2.75379E+04  6.20622E+01  2.74957E+04 -2.51052E+01
  2.73630E+04  3.38248E+01  2.71323E+04  3.07157E+01  2.70838E+04 -3.78916E+01  2.68931E+04 -1.90162E+01
  2.67789E+04  4.18746E+01  2.67353E+04 -5.02058E+01  2.64905E+04 -3.73685E+01  2.63785E+04 -2.90479E+01
  2.63460E+04 -2.91321E+01  2.62296E+04 -5.33243E+01  2.61192E+04  1.84109E+01  2.58720E+04 -4.00501E+01
  2.57913E+04  3.77461E+01  2.57132E+04 -1.72271E+01  2.56138E+04  3.36395E+00  2.54658E+04  6.20298E+01
  2.53162E+04  6.04520E+01  2.51902E+04  4.97061E+01  2.51354E+04 -3.06383E+00  2.49938E+04 -5.03377E+00
  2.48707E+04 -2.60818E+00  2.47598E+04 -5.64472E+01  2.45688E+04  2.91867E+01  2.44898E+04  2.78621E+01
  2.44121E+04 -3.38892E+01  2.42535E+04  1.72345E+01  2.41385E+04 -6.24394E+00  2.40069E+04  5.64083E+01
  2.39790E+04  3.41715E+01  2.37991E+04 -4.14209E+01  2.37385E+04  1.75865E+01  2.36526E+04  5.52608E+01
  2.35338E+04  2.21582E+01  2.33227E+04 -4.68649E+01  2.33105E+04 -6.34467E+01  2.31685E+04 -2.65992E+01
  2.30837E+04  7.17980E+00  2.29088E+04 -5.63390E+01  2.28582E+04  1.95432E+01  2.26978E+04  3.48843E+01
  2.25659E+04  5.60568E+01  2.25520E+04  3.17556E+01  2.23502E+04  5.94503E+01  2.23051E+04 -3.42767E+01
  2.22232E+04 -5.37787E+01  2.20324E+04 -5.02924E+01  2.19417E+04 -7.40741E+00  2.19177E+04 -6.11571E+01
  2.18410E+04 -5.40355E+01  2.16802E+04  2.11223E+01  2.15985E+04  9.32359E+00  2.14190E+04  1.67484E+01
  2.14076E+04  3.63054E-01  2.12479E+04 -3.51254E+01  2.11659E+04 -4.58252E+01  2.10150E+04  2.73274E+01
  2.10377E+04 -2.09241E+01  2.08652E+04 -3.46239E+01  2.08057E+04 -5.59598E+01  2.06610E+04  6.37322E+01
  2.06488E+04 -4.97937E+01  2.04973E+04  5.59157E+01  2.03656E+04 -3.48293E+01  2.02537E+04 -7.31675E+00
  2.02381E+04  2.35613E+01  2.01514E+04 -2.09582E+00  2.00025E+04 -3.45050E+01  1.99741E+04 -2.50452E+01
  1.98759E+04 -6.05057E+01  1.97110E+04 -3.50282E+01  1.95986E+04 -8.42175E+00  1.94997E+04 -4.55559E+01
  1.94986E+04 -1.28533E+01  1.93373E+04 -4.44610E+01  1.92205E+04  5.56048E+01  1.91334E+04  3.00068E+01
  1.90643E+04 -6.01029E+01  1.90231E+04 -2.88015E+01  1.89464E+04  3.27332E+01  1.87983E+04 -2.38325E+01
  1.87499E+04  3.15850E+01  1.86943E+04 -5.99412E+01  1.86228E+04 -1.64673E+01  1.85009E+04 -5.91031E+01
  1.83905E+04  1.95737E+01  1.82534E+04 -5.60130E+01  1.82478E+04 -1.89568E+01  1.81618E+04  1.47204E+01
  1.79952E+04  2.93213E+01  1.79345E+04  3.49376E+01  1.78242E+04  5.85753E+01  1.78531E+04 -2.24589E+01
  1.77496E+04 -2.97019E+01  1.76846E+04  2.05142E+01  1.75660E+04 -1.42665E-01  1.74332E+04  4.57033E+01
  1.74115E+04 -4.73412E+01  1.72406E+04  5.47897E+01  1.72297E+04 -1.62081E+01  1.71087E+04 -2.39998E+01
  1.70354E+04  2.82309E+01  1.69483E+04  1.52890E+01  1.69428E+04  6.22827E+01  1.68643E+04  5.93550E+01
  1.67027E+04  3.28958E+01  1.66658E+04 -3.84673E+01  1.65705E+04 -8.11564E+00  1.65230E+04 -4.60320E+01
  1.64533E+04  6.14788E+01  1.63882E+04  6.93812E+00  1.62997E+04 -3.65175E+01  1.61436E+04  3.47661E+01
  1.60996E+04  2.20968E+01  1.60770E+04 -3.89160E+01  1.59218E+04 -3.38169E+01  1.58927E+04 -4.28758E+01
  1.58753E+04  6.21967E+01  1.57921E+04 -3.24588E+00  1.56804E+04 -4.73836E+01  1.56365E+04  5.47879E+01
  1.55683E+04 -2.88369E+01  1.55056E+04  3.74431E+01  1.53580E+04  2.01811E+01  1.52490E+04  1.76127E+01
  1.52156E+04  1.12785E+01  1.52136E+04  2.06702E+01  1.51333E+04 -1.81446E+01  1.50622E+04  2.77018E+01
  1.49713E+04 -4.47621E+01  1.48791E+04 -6.41354E+01  1.47729E+04  3.24297E+01  1.47099E+04  1.45669E+00
  1.47149E+04  4.64894E+01  1.45420E+04  5.59800E+01  1.45100E+04 -6.16026E+01  1.44327E+04 -4.40027E+01
  1.44179E+04 -2.16795E+01  1.43577E+04  8.10188E+00  1.43108E+04  3.74114E+01  1.41641E+04 -1.00607E+01
  1.40863E+04  7.65148E+00  1.41031E+04 -2.04675E+01  1.40401E+04  4.11453E+01  1.39388E+04 -3.73999E+01
  1.38461E+04 -1.36487E+01  1.37878E+04  1.25422E+01  1.36879E+04 -3.26559E+01  1.37082E+04 -1.33437E+01
  1.36336E+04 -4.74552E+01  1.35677E+04  1.44764E+00  1.34453E+04  5.99178E+01  1.34390E+04 -4.73207E+01
  1.33473E+04  3.94220E+01  1.32576E+04  3.57296E+01  1.32153E+04 -4.88611E+01  1.31617E+04 -4.03036E+01
  1.31465E+04  1.63504E+01  1.29735E+04 -4.44708E+01  1.29882E+04 -2.99969E+01  1.28816E+04  2.05141E+01
  1.28079E+04 -2.30614E+01  1.27549E+04  1.93667E+01  1.27210E+04  5.91765E+01  1.27263E+04  5.70385E+01
  1.25874E+04 -2.86151E+01  1.25146E+04 -4.02018E+01  1.25095E+04  4.72435E+01  1.24026E+04 -6.05555E+01
  1.23466E+04  6.00616E+01  1.22785E+04  5.62410E+01  1.23037E+04  3.16324E+01  1.21397E+04  5.17842E+01
  1.21096E+04 -4.86168E+01  1.20943E+04 -2.18764E+01  1.20601E+04 -1.05701E+01  1.19503E+04 -1.00636E+01
  1.19807E+04  3.81546E+01  1.18737E+04 -6.21614E+01  1.18000E+04 -5.63481E+01  1.17020E+04 -6.19363E+01
  1.17081E+04 -1.13122E+01  1.15950E+04 -6.39836E+01  1.15483E+04  4.24903E+00  1.15796E+04 -1.57922E+01
  1.14890E+04  6.05948E+01  1.14128E+04 -3.71739E+01  1.13739E+04 -5.97233E+01  1.13136E+04  2.25743E+01
  1.12569E+04  5.39833E+01  1.11556E+04  1.71670E+01  1.11290E+04  1.25572E+01  1.11038E+04  2.88856E+01
  1.10241E+04  3.10159E+00  1.10330E+04  5.86251E+01  1.09200E+04 -1.95843E+01  1.09445E+04  5.19715E+01
  1.08465E+04  2.97310E+01  1.07611E+04 -1.53720E+01  1.06933E+04  2.04971E+01  1.07332E+04 -4.09324E+01
  1.07057E+04  5.99911E+01  1.06495E+04 -4.69383E+01  1.05717E+04  6.45950E+00  1.05502E+04  1.93938E+01
  1.04255E+04 -3.16091E+00  1.03971E+04 -4.67130E+01  1.03284E+04  2.10585E+01  1.02673E+04 -2.37690E+01
  1.01887E+04 -5.07720E+01  1.02501E+04 -6.02870E+01  1.02122E+04 -2.79867E+01  1.01668E+04  1.62856E+01
  1.00236E+04  6.00744E+01  1.00241E+04 -3.25259E+01  9.95232E+03  6.32658E+01  9.91791E+03  1.42300E+01
  9.86690E+03  1.49742E+01  9.79942E+03 -1.46501E+01  9.74438E+03 -3.49777E+01  9.74043E+03  9.47497E+00
  9.72264E+03 -6.56187E+00  9.70372E+03  5.92286E+01  9.61034E+03  3.61349E+01  9.55681E+03  5.40040E+01
  9.50650E+03 -1.93976E+00  9.41215E+03 -6.18749E+01  9.44426E+03  4.17218E+01  9.39080E+03 -6.99305E+00
  9.38183E+03 -5.79684E+01  9.23457E+03 -3.91332E+01  9.21284E+03 -4.84438E+01  9.21530E+03 -3.17327E+01
  9.21037E+03  5.43868E+01  9.09400E+03  1.80496E+01  9.04064E+03  8.63006E+00  9.00145E+03 -5.11647E+01
  8.96513E+03  1.75214E+01  8.95711E+03 -4.86211E+01  8.92045E+03 -5.27388E+01  8.87672E+03  3.73357E+01
  8.75892E+03 -6.31483E+00  8.74557E+03  5.00555E+01  8.72790E+03 -5.15406E+01  8.74302E+03  4.82405E+01
  8.64102E+03 -3.11283E+01  8.59705E+03 -4.67573E+01  8.59528E+03 -1.82787E+01  8.49110E+03 -5.37561E+01
