 $NMID ID='dataset26', FMTDAT='(8E13.5)'
 TRAMP=1, VOLUME=1 $END
  5.37581E+04  1.09382E+02  5.37802E+04  2.42327E+02  5.32577E+04  4.73234E+02  5.28184E+04  4.44382E+02
  5.22970E+04  3.58006E+02  5.19350E+04  1.97283E+02  5.16823E+04 -6.14751E+01  5.15335E+04 -1.89348E+02
  5.15118E+04 -2.71917E+02  5.13686E+04 -2.22760E+02  5.12130E+04 -8.63015E+01  5.09822E+04  2.75915E+01
  5.06368E+04  1.66941E+02  5.03269E+04  2.07888E+02  5.00013E+04  1.48612E+02  4.96650E+04  5.46489E+01
  4.95339E+04 -3.98502E+01  4.92938E+04 -8.08520E+01  4.91901E+04 -7.24715E+01  4.89240E+04 -3.95067E+01
  4.87175E+04  6.69737E+01  4.84498E+04  6.20927E+01  4.81676E+04  9.98507E+01  4.78575E+04  1.55857E+01
  4.76509E+04 -2.63102E+01  4.74938E+04 -1.07262E+02  4.73149E+04 -1.76863E+02  4.71556E+04 -8.90442E+01
  4.69856E+04 -7.68913E+01  4.68243E+04  5.21843E+01  4.65659E+04  1.11264E+02  4.62669E+04  1.06710E+02
  4.59294E+04  1.02308E+02  4.56886E+04  6.69674E+01  4.53924E+04  1.68958E+01  4.52703E+04 -8.70133E+01
  4.50880E+04 -1.55321E+02  4.49170E+04 -1.34953E+02  4.48396E+04 -1.55000E+02  4.46087E+04 -1.63130E+01
  4.44452E+04  5.59533E+01  4.42166E+04  1.08353E+02  4.39371E+04  1.22872E+02  4.36595E+04  1.43390E+02
  4.34242E+04  2.86540E+01  4.32431E+04  3.62456E+01  4.30297E+04 -6.05658E+01  4.28151E+04 -5.16821E+01
  4.27088E+04 -8.72486E+01  4.25253E+04 -4.36596E+01  4.23559E+04  3.51597E+01  4.21572E+04  8.94936E+01
  4.19012E+04  5.45290E+01  4.16328E+04  7.66646E+01  4.13568E+04 -1.35163E+00  4.11799E+04 -2.90444E+01
  4.10084E+04 -9.26727E+01  4.08479E+04 -1.39391E+02  4.07498E+04 -1.11784E+02  4.06147E+04 -7.03113E+01
  4.03693E+04 -2.19950E+01  4.02404E+04  4.64045E+01  4.00065E+04  7.84081E+01  3.97260E+04  6.71536E+01
  3.95401E+04  4.33960E+01  3.93608E+04  8.86523E+00  3.91361E+04 -2.93102E+01  3.90027E+04 -9.24326E+01
  3.88852E+04 -5.32767E+01  3.87090E+04 -1.95494E+01  3.85002E+04  7.36949E+01  3.83230E+04  2.56970E+01
  3.80569E+04  5.42332E+01  3.78459E+04  6.34079E+01  3.76682E+04 -2.86764E+01  3.74913E+04 -5.15517E+00
  3.73353E+04 -8.54823E+01  3.72756E+04 -3.79725E+01  3.70439E+04 -4.45817E+01  3.69468E+04  1.67033E+01
  3.67259E+04  2.10644E+01  3.64539E+04  4.75978E+01  3.62827E+04  6.90874E-01  3.60801E+04  2.48666E+01
  3.59315E+04 -1.03360E+02  3.58413E+04 -7.06194E+01  3.57491E+04 -1.25911E+02  3.56245E+04 -9.08254E+01
  3.54217E+04 -1.98074E+01  3.52634E+04  1.27582E+01  3.50573E+04  5.33955E+01  3.48358E+04  1.20097E+02
  3.46149E+04  2.28026E+01  3.44158E+04  2.75333E+01  3.43321E+04 -3.84445E+01  3.41788E+04 -4.81746E+01
  3.40218E+04 -4.59130E+01  3.39154E+04 -5.57783E+01  3.37696E+04 -4.17119E+01  3.36050E+04  2.21780E+01
  3.34398E+04  6.66194E+01  3.32127E+04  1.96567E+01  3.30190E+04  5.15526E+01  3.28613E+04 -8.56460E+00
  3.27155E+04 -3.42351E+01  3.25878E+04 -8.85088E-01  3.24435E+04 -4.05535E+01  3.23360E+04 -3.40853E+01
  3.21231E+04 -1.40980E+01  3.19781E+04 -1.60423E+01  3.18887E+04 -6.49557E+00  3.16700E+04  1.74379E+01
  3.15817E+04 -3.19832E+01  3.13827E+04  4.61378E+00  3.12518E+04 -5.83811E+01  3.11292E+04  1.61275E+01
  3.10345E+04  2.98391E+01  3.08598E+04 -8.29395E+00  3.06994E+04  8.78633E+00  3.05693E+04  3.26069E+01
  3.03419E+04  4.11449E+01  3.02155E+04  2.27855E-01  3.01050E+04 -2.45500E+01  2.99717E+04 -4.67957E+00
  2.97641E+04  2.18583E+01  2.96754E+04  9.77506E+00  2.95736E+04 -4.72256E+01  2.93897E+04 -2.66553E+01
  2.93033E+04 -3.40016E+01  2.91094E+04  2.78073E+01  2.90056E+04  1.23434E+01  2.88573E+04 -5.86533E+00
  2.87250E+04 -2.55738E+01  2.85835E+04 -3.79671E+01  2.84805E+04 -2.99984E+01  2.83002E+04 -2.69021E+01
  2.82400E+04 -1.54531E+01  2.80843E+04 -2.36907E+01  2.79711E+04 -1.58523E+01  2.78271E+04 -1.86896E+01
  2.77159E+04  4.27515E+01  2.74984E+04  1.52347E+01  2.74070E+04 -1.20935E+01  2.72661E+04  3.24589E+01
  2.71049E+04  4.33773E+01  2.70239E+04  1.60998E+01  2.68606E+04  2.71030E+01  2.67410E+04 -2.74398E+01
  2.66401E+04 -3.10438E+01  2.64545E+04  3.52333E+01  2.64002E+04 -3.47304E+01  2.62022E+04  1.89626E+01
  2.61162E+04 -2.52822E+01  2.59881E+04 -6.32379E+00  2.58720E+04  1.49021E+01  2.57702E+04  1.69282E+00
  2.56484E+04 -5.71924E+00  2.55653E+04 -3.43308E+01  2.54025E+04 -5.90275E+00  2.53094E+04  4.18959E+01
  2.51371E+04 -4.50408E+00  2.50295E+04 -2.46442E+01  2.48885E+04  3.95548E+01  2.48319E+04  7.58993E+00
  2.47044E+04  1.57712E+01  2.45757E+04 -1.93741E+01  2.44992E+04 -8.82454E+00  2.43898E+04  2.71627E+01
  2.42121E+04  9.27546E+00  2.40690E+04  2.90262E+01  2.39715E+04  7.73669E+00  2.38760E+04 -2.18374E+01
  2.37856E+04 -5.14110E+01  2.36564E+04  1.67033E+00  2.35907E+04 -5.22749E+01  2.34297E+04 -1.71195E+01
  2.33500E+04 -3.09709E+01  2.32490E+04 -1.33066E+01  2.31860E+04 -1.18392E+01  2.30308E+04  2.12164E+01
  2.29348E+04 -2.36291E+01  2.28442E+04  2.61214E+01  2.27317E+04 -2.22454E+00  2.25629E+04 -1.09079E+01
  2.25092E+04 -8.87255E+00  2.23529E+04  4.98583E+01  2.22514E+04  5.76204E+01  2.21476E+04 -1.67876E+01
  2.20396E+04  1.02762E+01  2.19148E+04  1.59334E+01  2.18658E+04  1.93509E+01  2.17136E+04  6.63140E+00
  2.16161E+04  1.62197E+01  2.15395E+04 -1.08462E+01  2.13983E+04 -5.09067E+01  2.13664E+04 -4.18921E+00
  2.12579E+04 -1.76838E+01  2.11602E+04 -6.07803E+01  2.10847E+04  3.12565E+00  2.09810E+04 -1.45721E+01
  2.08728E+04  1.62166E+01  2.07512E+04 -1.68164E+01  2.06860E+04 -4.84195E+00  2.05630E+04  3.68965E+01
  2.04278E+04  2.54105E+00  2.03831E+04  3.93554E+01  2.02487E+04  4.05990E+01  2.01562E+04  4.26652E+01
  2.00562E+04 -2.19338E+00  1.99646E+04  1.32482E+01  1.99227E+04  1.30342E+01  1.98029E+04 -2.33639E+01
  1.96571E+04  5.05439E+00  1.95801E+04  2.21137E+01  1.94668E+04  1.68186E+01  1.93732E+04 -2.68137E+01
  1.93066E+04 -5.25130E+01  1.91998E+04 -2.49716E+01  1.91344E+04 -2.08412E+01  1.90743E+04 -2.05815E+00
  1.89541E+04 -2.36514E+01  1.88922E+04 -6.79334E+00  1.88063E+04 -1.69700E+01  1.87303E+04  1.31248E+01
  1.86653E+04  2.30885E+01  1.85009E+04 -9.18290E-01  1.84236E+04 -3.32524E+01  1.84068E+04  5.71305E+00
  1.83199E+04  1.13720E+01  1.81980E+04 -2.78994E+01  1.80902E+04  4.37351E+00  1.80024E+04 -1.48985E+01
  1.79265E+04 -1.67085E+01  1.78707E+04  1.77144E+01  1.77184E+04  2.66245E+01  1.76761E+04  8.29175E+00
  1.75740E+04 -3.74374E+01  1.75186E+04  1.38667E+01  1.74322E+04  3.04993E+01  1.73238E+04  1.28679E+01
  1.72737E+04  3.65834E+01  1.71807E+04 -2.82638E+01  1.70978E+04 -1.60165E+01  1.70448E+04 -2.37736E+01
  1.69160E+04 -3.45728E+01  1.68283E+04  2.98440E+01  1.68213E+04  1.13806E+01  1.67510E+04  1.55020E+01
  1.66266E+04 -2.76382E+01  1.65772E+04  1.68340E+01  1.64383E+04 -2.95264E+01  1.63781E+04  4.76326E+01
  1.62694E+04  4.71337E+01  1.61935E+04 -1.25182E+00  1.61818E+04 -3.05886E+01  1.61004E+04 -3.60420E+01
  1.60415E+04 -1.14082E-01  1.59293E+04 -3.52135E+01  1.58765E+04  2.72272E+01  1.57984E+04  3.74296E+01
  1.57032E+04 -1.72037E+01  1.56374E+04  3.03176E+01  1.55198E+04 -3.30734E+01  1.54759E+04 -3.58446E+01
  1.54537E+04 -6.82433E+00  1.53555E+04 -1.63914E+01  1.52609E+04 -2.87799E+01  1.52449E+04 -4.29182E+01
  1.51907E+04 -2.77560E+01  1.50927E+04  1.57471E+01  1.50174E+04 -6.13600E+00  1.49646E+04 -1.57630E+01
  1.48911E+04 -5.11031E+00  1.47353E+04 -2.24810E+01  1.47222E+04 -3.47727E+01  1.46342E+04 -2.28797E+01
  1.46079E+04 -1.53589E+01  1.45071E+04  1.16148E+01  1.44406E+04 -2.90153E+01  1.43665E+04  1.75047E+01
  1.42915E+04  2.10658E+01  1.42497E+04  2.63905E+01  1.41168E+04 -3.02386E+01  1.40816E+04 -1.56444E+01
  1.40625E+04  1.38339E+01  1.39249E+04  3.63802E+01  1.38681E+04 -3.09579E+01  1.38120E+04 -1.57877E+01
  1.38099E+04 -1.00799E+01  1.36942E+04  1.17799E+01  1.36371E+04  3.23810E+00  1.35612E+04  3.45696E-01
  1.35263E+04 -1.29126E+00  1.34251E+04  6.32806E+00  1.34103E+04  1.01594E-01  1.33511E+04 -2.89795E+01
  1.33155E+04  1.25523E+00  1.31741E+04  1.05668E-01  1.31139E+04 -1.41083E+01  1.30883E+04  1.89001E+01
  1.30484E+04 -1.94484E+01  1.29239E+04  4.03931E+00  1.28577E+04 -1.22413E+01  1.28296E+04 -4.12471E+01
  1.27189E+04  3.36930E+01  1.26620E+04  2.00924E+00  1.26242E+04  2.92585E+01  1.25851E+04 -1.56269E+01
  1.25193E+04 -2.65248E+01  1.24433E+04  2.61688E+01  1.23941E+04 -2.88566E+01  1.23885E+04  9.60815E-01
  1.23089E+04  1.39997E+01  1.22018E+04  1.02618E+01  1.21613E+04 -2.76119E+01  1.21166E+04  2.49244E+01
  1.20499E+04 -2.37265E+01  1.19970E+04 -4.39177E+00  1.19805E+04  4.07651E+00  1.19291E+04  2.59076E+01
  1.18764E+04  2.64751E+01  1.18182E+04  3.62858E+01  1.17485E+04 -1.90786E+01  1.17034E+04 -3.29237E+01
  1.16360E+04 -2.02368E+01  1.15470E+04 -1.64413E+01  1.14765E+04  1.84929E+01  1.14904E+04  5.25408E+01
  1.13847E+04 -2.19357E+01  1.13211E+04  3.28956E+01  1.13121E+04  1.57499E+01  1.12491E+04  3.64909E+01
  1.12161E+04  2.01479E+01  1.11176E+04 -5.12076E+01  1.10500E+04  2.84326E+01  1.10728E+04 -5.11187E+01
  1.09736E+04  1.44522E+01  1.09190E+04 -6.15594E+00  1.08965E+04 -3.72995E+01  1.08586E+04 -9.66501E+00
  1.08001E+04  3.95603E+01  1.06969E+04 -3.30481E+01  1.07105E+04  2.28269E+01  1.06059E+04  4.65622E+01
  1.05721E+04  1.44112E+01  1.04909E+04  7.70412E+00  1.04681E+04 -2.50036E+01  1.03768E+04  2.28334E+01
  1.03406E+04  2.57847E+01  1.02995E+04 -2.43052E+01  1.02806E+04  2.20460E+01  1.02026E+04 -4.50917E+01
  1.01746E+04  1.98369E+01  1.01366E+04 -4.34719E+01  1.01163E+04 -3.50149E+01  1.00306E+04 -2.72232E+01
  1.00304E+04  2.11423E+00  9.92759E+03  7.73993E+00  9.91487E+03  3.73198E+01  9.88082E+03 -3.17653E+01
  9.79084E+03 -2.78209E+01  9.71523E+03  3.35531E+00  9.72081E+03  2.96357E+01  9.71923E+03  2.81808E+01
  9.59642E+03 -3.00475E+01  9.62318E+03 -1.73965E+01  9.57126E+03 -2.08957E+00  9.51064E+03  3.68958E+01
  9.42653E+03  1.86138E+01  9.40423E+03 -1.36652E+01  9.30382E+03  1.30344E+01  9.28340E+03  1.99689E+01
  9.22392E+03 -1.73566E+01  9.22044E+03  2.20949E+01  9.19486E+03 -3.99581E+00  9.17933E+03  1.82854E+00
