 $NMID ID='dataset27', FMTDAT='(8E13.5)'
 TRAMP=1, VOLUME=1 $END
  2.09246E+02  8.97155E+01  3.62039E+02  1.76551E+02  2.29223E+02  3.05645E+02  4.47837E+01  3.31762E+02
 -9.43805E+01  2.78522E+02 -1.88723E+02  1.61024E+02 -2.07059E+02  3.82824E+01 -1.45859E+02 -8.14183E+01
 -5.06586E+01 -1.13827E+02  5.34563E+01 -1.00249E+02  1.03164E+02 -3.67393E+01  1.03749E+02  3.88358E+01
  4.13230E+01  9.13990E+01 -1.06298E+01  1.08941E+02 -7.85229E+01  8.50889E+01 -8.92657E+01  3.31330E+01
 -7.88814E+01 -1.92714E+01 -5.37580E+01 -4.54638E+01 -1.04763E+01 -4.50253E+01  7.34860E+00 -9.50804E+00
 -5.57600E-01  1.63514E+01 -2.54229E+01  2.94277E+01 -4.51312E+01  2.88455E+01 -7.34293E+01 -1.69276E+00
 -7.04677E+01 -4.54470E+01 -4.98642E+01 -8.82092E+01  8.61343E+00 -8.27087E+01  5.10252E+01 -7.48136E+01
  8.21340E+01 -3.48003E+01  8.61568E+01  3.11419E+01  5.49787E+01  7.36792E+01 -5.17066E+00  1.01056E+02
 -5.48616E+01  9.16826E+01 -8.61744E+01  5.06492E+01 -1.16700E+02 -4.43684E+00 -9.14023E+01 -6.94564E+01
 -3.86990E+01 -1.09214E+02  1.15099E+01 -1.15913E+02  7.25590E+01 -7.63833E+01  9.62654E+01 -4.75599E+01
  9.42345E+01  1.28439E+01  6.60631E+01  5.17346E+01  4.29863E+01  6.88982E+01 -5.77416E+00  6.97779E+01
 -3.44374E+01  5.23350E+01 -4.09541E+01  3.33859E+00 -3.23012E+01 -2.30705E+01  5.85412E+00 -2.55927E+01
  1.77089E+01 -2.87538E+01  4.46890E+01  2.89539E+00  3.59080E+01  3.98519E+01  1.14214E+01  4.63782E+01
 -7.51597E+00  7.16092E+01 -4.52106E+01  5.19443E+01 -7.80724E+01  2.35836E+01 -8.03345E+01 -2.67324E+01
 -4.30864E+01 -6.30163E+01 -1.49082E+01 -7.84127E+01  1.87989E+01 -7.84383E+01  5.33829E+01 -4.10085E+01
  4.93948E+01 -1.08060E+01  4.43409E+01  3.06745E+01  1.65464E+01  2.87554E+01 -1.71797E+01  3.66671E+01
 -3.01056E+01  9.15081E+00 -2.73601E+01 -1.35807E+01 -1.20893E+01 -2.43655E+01 -9.36179E-01 -4.63928E+01
  3.10681E+01 -3.00970E+01  4.12890E+01 -5.14037E+00  3.80622E+01  3.28874E+01  1.17047E+01  4.37570E+01
 -2.53467E-01  4.92857E+01 -3.86140E+01  2.78380E+01 -3.83603E+01  1.38566E+01 -3.15993E+01 -3.23626E+00
 -1.11846E+01 -1.54610E+01 -2.74644E+00 -1.34976E+01  1.14765E+01 -8.14772E+00  5.35098E+00  1.18872E+01
 -1.42518E+01  2.92583E+01 -3.40749E+01  2.84046E+01 -5.22514E+01 -2.78679E+00 -3.94439E+01 -1.82894E+01
 -2.68657E+01 -5.50528E+01 -8.81774E+00 -6.10984E+01  3.08039E+01 -5.69601E+01  6.38057E+01 -4.20462E+01
  6.28082E+01 -4.41601E+00  6.86194E+01  2.02914E+01  4.24165E+01  4.96150E+01 -1.30221E+00  5.31705E+01
 -2.81512E+01  3.27733E+01 -3.99633E+01  1.42503E+01 -3.65200E+01 -1.19164E+01 -1.68351E+01 -1.84525E+01
  5.96370E+00 -1.98999E+01  3.44317E+01 -7.43534E+00  3.09743E+01  8.59591E+00  1.79256E+01  2.39655E+01
  1.86454E+01  2.88758E+01 -5.68924E+00  3.91283E+01 -2.69215E+01  3.24271E+01 -2.70710E+01  1.80772E+01
 -2.29893E+01  4.69646E+00 -1.60689E+01 -2.05863E+01 -1.68394E+01 -2.31708E+01  7.78565E-01 -1.16637E+01
 -5.33192E+00 -3.31601E+00 -2.20841E+00 -7.66571E+00 -1.01419E+01  3.70037E+00 -1.87150E+01 -1.52065E+01
 -1.62214E+01 -2.00603E+01  2.95049E+00 -3.25456E+01  7.68357E+00 -2.27851E+01  1.75445E+01 -1.62152E+01
  3.72012E+01  4.30155E+00  1.67828E+01  1.43692E+01  1.37202E+01  3.19830E+01  5.66400E+00  3.19135E+01
 -7.25865E-01  2.65644E+01 -1.78477E+01  1.75409E+01 -3.23307E+01  6.60700E+00 -2.63045E+01 -1.05781E+01
 -2.45831E+01 -3.78552E+00 -1.12611E+01 -1.62225E+01 -9.25753E+00 -3.45210E+00 -7.27252E-01 -6.30665E+00
  4.89860E-01 -7.46683E+00  1.56016E+00 -8.42200E+00 -1.33117E+01 -3.98854E+00 -8.82382E+00 -5.92969E+00
 -1.15745E+01 -1.40106E+01 -1.12148E+01 -7.06444E+00  3.26393E+00 -1.44503E+01  7.84763E+00 -1.95910E+01
  1.34160E+01 -1.47211E+00  2.90906E+01 -3.66272E+00  1.85224E+01  1.22286E+01  1.81644E+01  2.14754E+01
  1.03850E+01  1.37029E+01 -2.15194E+00  2.89585E+01 -6.28569E+00  2.79582E+01 -1.18934E+01  1.56585E+01
 -5.64085E+00  1.58568E+01 -4.93779E+00  2.06108E+01 -1.25361E+01  2.06308E+00 -1.03204E+01  1.49425E+01
 -2.52821E+01  9.64269E+00 -1.84069E+01  1.07880E-01 -2.27345E+01  7.81249E-01 -1.83482E+01 -5.43645E+00
 -1.87279E+01 -1.80989E+01 -1.00656E+01 -1.73338E+01 -1.23966E+00 -1.17627E+01  2.17616E+00 -1.79222E+01
  2.04533E+01 -1.97152E+01  2.30890E+01  2.84949E+00  1.99741E+01 -8.81477E+00  8.33654E+00 -3.27874E+00
  7.74906E+00 -8.98196E-01  8.95763E+00 -9.14778E-01  5.14844E-01  1.47733E+01 -9.48679E+00  5.47508E+00
 -4.06352E+00  1.34196E+01 -2.81240E+00  4.25356E+00 -7.62868E+00  8.37658E+00 -8.02545E+00  2.46278E-01
 -8.50675E+00 -6.42958E+00 -1.16599E+01 -5.60953E+00 -2.16080E+01 -1.22211E+01 -1.45995E+01 -2.14502E+01
 -8.05251E+00 -2.14759E+01 -1.57065E+01 -2.02208E+01 -3.07784E-01 -2.15009E+01  1.01014E+00 -1.88268E+01
  1.13560E+01 -2.75874E+01  1.57333E+01 -6.58936E+00  3.47132E+01 -1.33992E+01  3.52232E+01  9.13146E-01
  2.84644E+01  1.06930E+01  3.04844E+01  6.29785E+00  2.58635E+01  2.48745E+01  1.76341E+01  2.31542E+01
 -7.50786E-01  1.30826E+01  7.17243E+00  1.26757E+01  7.41622E+00  1.80799E+01 -1.25703E+01  2.37218E+01
 -3.33004E+00  2.08132E+01 -1.60596E+01  2.24489E+01 -1.98662E+01  7.32066E+00 -1.86689E+01  1.34870E+01
 -1.57913E+01  5.01416E+00 -2.66857E+01 -7.12165E-01 -2.01105E+01 -2.15829E+01 -7.90753E+00 -1.37377E+01
 -1.08190E+00 -2.66508E+01  4.07348E+00 -1.25324E+01  1.40776E+01 -2.56412E+01  1.13640E+01 -6.71359E+00
  2.43577E+01 -6.43130E+00  2.20515E+01 -9.08214E+00  1.15699E+00 -4.44748E+00 -2.82485E+00  6.10230E-01
 -2.92132E+00  1.38111E+01 -2.47766E-01 -3.09462E+00 -8.12800E+00  8.75984E+00  8.18634E+00  8.76574E+00
  8.79310E+00  8.37327E+00  1.16819E+01  1.35949E+01  5.61809E+00  7.50942E-01 -2.14089E-02  2.02398E+01
 -2.12098E+01  5.00678E+00 -8.04101E+00  8.62411E+00 -1.29788E+01  1.67712E+00 -1.63769E+01 -1.76516E+01
 -2.69157E+00 -2.56934E+01 -1.16757E+01 -2.80759E+01  7.88143E+00 -2.17588E+01  9.90481E+00 -2.08929E+01
  6.64170E+00 -1.57139E+01  1.77512E+01  1.14098E+00  1.99067E+01 -7.92938E+00  9.49074E+00  9.85775E+00
  1.57620E+01 -5.39857E+00  1.24876E+01  9.87214E+00  4.36767E+00 -5.27509E+00  1.87672E+01  6.54868E+00
  4.85969E+00 -1.78150E+00  1.71318E+01  1.40049E+01 -3.57220E+00  8.17679E+00  1.76231E+00  2.67912E+01
 -4.43175E+00  1.97158E+01 -1.25439E+01  1.09173E+01 -1.04155E+01  1.00898E+01 -2.20541E+01  8.59607E-01
 -9.66760E-01 -7.13289E+00 -3.19766E+00 -1.17038E+01  9.00149E+00 -6.94186E+00  6.39714E+00 -3.50789E+00
  1.16741E+01 -2.49281E+00 -4.77629E+00  1.68137E+01 -1.05241E+01  1.45151E+01 -6.95065E+00 -5.13795E+00
 -1.84027E+01  7.02013E-01 -1.05804E+01 -8.88483E+00  7.88233E+00 -4.64988E+00  2.65622E+00 -7.62184E+00
  1.62569E+01  1.87044E+00  1.96042E+01  1.13927E+01  1.54647E+01  1.84381E+01  1.62223E+00  9.06947E+00
 -1.70060E+01  6.28333E+00 -6.20771E+00  8.74913E+00 -2.00201E+01 -2.65247E+00 -1.39418E+01 -2.18679E+01
 -9.13784E+00 -2.43037E+01  6.53233E+00 -5.42308E+00  1.88140E+01 -1.85461E+01  2.01132E+01 -6.78592E-01
  9.46307E+00 -4.20214E+00 -8.12394E+00  1.15996E+01 -8.54683E+00  1.73993E+00 -1.47725E+01  6.20365E+00
 -7.78381E+00 -4.97770E+00 -6.11261E+00 -2.17079E+01  1.08440E+01 -9.44145E+00  6.43224E+00 -8.45312E+00
  1.39422E+01 -1.36986E+01  2.48534E+01  4.86102E+00  1.80083E+01  9.47647E+00 -1.18725E+00  2.38899E+01
  2.20777E+00  1.99452E+01  2.22623E+00  8.84198E+00 -7.54182E+00 -3.07052E+00  1.71098E+00 -4.52418E+00
 -4.28873E+00 -2.93181E+00  9.25928E+00 -1.72605E+00  1.76214E+00 -4.06561E+00  1.23653E+01  1.03828E+01
  1.27653E+00  1.26599E+01 -1.57620E+01  1.78753E+01 -4.92196E+00  1.06726E+01 -1.07963E+01 -6.03874E+00
 -4.43736E+00 -1.18405E+01  9.48232E-01  3.25426E+00 -9.20269E+00 -1.58171E+01  6.06038E-02  2.85438E+00
  8.58387E+00 -1.48251E+00 -9.74525E+00  8.18776E+00 -7.03450E+00 -7.01897E+00  4.28915E+00 -7.67386E+00
 -1.79131E+00  6.14573E-01  2.32020E+00 -3.90437E+00  1.33011E+01 -2.00109E+01  1.21332E+01 -1.90253E+00
  1.80143E+01  3.95189E+00  2.31794E+01  9.55468E+00  1.85373E+01  6.52621E+00  9.24154E+00  1.61346E+01
 -7.57788E+00  1.09691E+01 -1.65982E+01  1.94644E+01 -1.51151E+01  5.25490E+00 -1.67784E+01  8.98022E+00
 -2.00681E+01 -1.29167E+01 -1.45501E+01 -1.99786E+00 -1.21543E+01 -1.18781E+01  1.03693E+01 -9.58449E+00
  4.39743E+00  3.53274E+00  4.41255E+00 -6.78217E+00 -4.58323E+00 -1.13628E+01  1.39841E+00 -1.26423E+00
 -2.77637E+00 -1.57842E+01 -2.56509E+00 -1.82326E+01  6.15205E+00 -1.46852E+01  3.93089E+00 -1.97779E+01
  1.74589E+01 -1.77876E+01  1.45498E+01 -1.08748E+01  2.06427E+01  1.07856E+01  1.71823E+01  5.19284E+00
  1.36216E+01  1.06730E+01  4.20116E+00  1.70370E+01 -1.32912E+00 -3.32020E+00 -3.28089E-01 -3.28380E+00
  7.04846E+00  4.76928E+00  5.90435E+00  1.27430E+01  7.90775E+00  9.69123E-01  7.34684E+00  5.87911E+00
 -6.42743E+00  8.23177E+00 -4.65741E+00  1.82401E+01 -1.62615E+01 -1.18009E+00 -1.21844E+01 -5.25258E+00
 -2.33752E+00 -4.44687E+00 -1.23402E+01 -1.27640E+01  3.36919E+00 -1.39862E+01  7.96445E+00 -6.11906E+00
  1.58669E+01 -8.21066E+00  4.46520E+00  6.90522E+00  2.79716E+00 -1.99298E+00  1.17947E+01  1.25492E+01
  8.39070E+00  6.29148E+00  3.92969E+00  5.53795E+00 -6.72170E-01  1.31051E+01 -5.92714E+00  9.38919E+00
 -6.80880E+00  8.13681E+00 -3.37590E-01  1.55961E+01 -2.18632E+00  1.16871E+01 -1.99321E+01  1.02153E+01
 -2.54040E+01  1.09474E-01 -2.38651E+01  5.98006E-01 -1.56077E+01 -1.18210E+01 -3.14867E+00 -9.37510E+00
  2.66625E+00 -2.29358E+01  1.10223E+01 -1.83856E+01  2.19307E+01 -1.51314E+01  2.48870E+01 -3.74257E+00
  6.21595E+00  5.09084E+00  1.28260E+00  1.61866E+01 -5.78453E+00  1.44479E+01 -4.01837E+00  1.47718E-01
 -1.32602E+01 -1.04253E+00  2.62246E-01 -2.09638E+00 -1.96638E-01 -5.26015E+00  7.35087E+00 -7.76751E+00
  1.68523E+01  8.79176E+00  4.09936E+00  6.55919E+00 -9.48526E-01  6.57707E+00 -8.64586E+00  1.64359E+01
 -1.24393E+01  8.18603E+00 -5.65334E+00  1.62952E+01 -2.82751E+01 -4.54652E+00 -2.76174E+01 -6.23283E+00
 -1.20052E+01 -4.62143E+00 -1.16800E+01 -7.84129E+00 -1.15019E+01 -9.97199E+00  2.20649E+00 -6.30001E+00
