 $NMID ID='dataset1', FMTDAT='(8E13.5)'
 TRAMP=1, VOLUME=1 $END
  4.99193E+04  2.18776E+01  4.97154E+04  1.62876E+01  4.94671E+04 -6.92302E+00  4.92416E+04 -1.04233E+01
  4.89759E+04 -9.73167E+00  4.87513E+04 -1.76981E+00  4.85264E+04 -6.21680E+00  4.83346E+04  1.41349E+01
  4.80805E+04 -1.39404E+01  4.78694E+04 -6.14329E-01  4.76282E+04  1.35872E+01  4.74162E+04  7.42995E+00
  4.72051E+04  1.10001E+01  4.69483E+04 -1.96043E+01  4.67410E+04  7.49042E+00  4.65273E+04 -1.89947E+01
  4.62819E+04 -1.38169E+01  4.60891E+04  2.28117E+01  4.58915E+04 -1.03973E+01  4.56546E+04  1.96927E+00
  4.54369E+04 -5.79336E+00  4.52311E+04  1.67664E+01  4.49932E+04 -1.69185E+01  4.47899E+04 -2.03229E+01
  4.45854E+04  2.28548E+01  4.43829E+04  6.39163E+00  4.41906E+04  5.21839E+00  4.39481E+04  9.57545E+00
  4.37365E+04 -4.36694E+00  4.35592E+04  1.72001E+00  4.33381E+04 -1.38833E+01  4.31649E+04  1.41743E+01
  4.29292E+04  4.71594E+00  4.27286E+04  2.34910E+01  4.25420E+04  1.86800E+01  4.23231E+04  1.00535E+01
  4.21573E+04  6.37665E+00  4.19286E+04  2.00264E+01  4.17578E+04 -2.27672E+01  4.15307E+04 -1.98432E+01
  4.13703E+04  2.06738E+01  4.11698E+04 -2.30286E+01  4.09638E+04 -2.18322E+00  4.07748E+04  1.89320E+01
  4.05687E+04 -2.26664E+01  4.03802E+04 -1.42191E+01  4.01905E+04 -1.73948E+01  4.00029E+04  8.87401E+00
  3.98037E+04 -4.91845E+00  3.96348E+04  5.93920E+00  3.94525E+04 -1.31148E+01  3.92512E+04 -6.36540E-02
  3.90668E+04  2.12711E+01  3.89030E+04 -1.54297E+01  3.86914E+04  4.81239E+00  3.85481E+04  1.36401E+01
  3.83578E+04 -8.12942E+00  3.81776E+04 -3.81257E-01  3.79804E+04 -1.28735E+01  3.78097E+04  7.84204E+00
  3.76335E+04 -1.69921E+01  3.74416E+04 -1.23149E+01  3.73039E+04 -2.17785E+01  3.71224E+04  1.02547E+01
  3.69528E+04 -2.31900E+01  3.67493E+04 -1.91554E+01  3.65849E+04  4.15167E+00  3.63996E+04 -4.43571E+00
  3.62389E+04  1.27816E+01  3.60547E+04  2.04863E+01  3.58962E+04  1.28770E+01  3.57202E+04 -1.42179E+01
  3.55524E+04  1.65761E+01  3.53805E+04 -1.32047E+01  3.52076E+04  5.77651E+00  3.50547E+04  2.01411E+01
  3.49030E+04 -1.14405E+01  3.47404E+04 -1.68205E+01  3.45770E+04  7.95101E+00  3.44076E+04  1.66776E+01
  3.42638E+04  1.65543E+01  3.40820E+04  9.34775E+00  3.39412E+04 -1.30980E+00  3.37853E+04 -1.10832E+01
  3.36305E+04  6.44664E+00  3.34744E+04  2.03087E+00  3.32890E+04 -2.03995E+01  3.31530E+04 -1.91795E+01
  3.29833E+04  6.36957E+00  3.28491E+04  1.28724E+01  3.26657E+04  1.99759E+01  3.25058E+04 -1.23576E+01
  3.23541E+04 -1.61845E+01  3.21925E+04  1.51170E+01  3.20468E+04  1.08791E+01  3.19184E+04  4.95251E+00
  3.17544E+04 -2.33897E+01  3.15993E+04 -1.39125E+01  3.14725E+04  1.54977E+01  3.12986E+04 -1.57720E+00
  3.11643E+04 -2.29915E+01  3.09996E+04  6.33748E+00  3.08816E+04 -5.01598E+00  3.07545E+04 -2.18377E+00
  3.05750E+04 -9.66848E+00  3.04244E+04  2.14631E+01  3.03170E+04 -1.28314E+01  3.01455E+04 -7.87081E+00
  3.00051E+04  8.48042E+00  2.98859E+04  1.78073E+01  2.97108E+04  1.52453E+00  2.95985E+04  1.76953E+00
  2.94448E+04  1.78506E+00  2.93009E+04 -1.75606E+01  2.91645E+04  1.32733E+00  2.90595E+04 -1.24727E+01
  2.88871E+04 -5.83124E+00  2.87812E+04 -4.17221E+00  2.86301E+04  6.98125E+00  2.84967E+04 -1.47792E+01
  2.83619E+04  8.19738E+00  2.82397E+04 -2.09655E+01  2.81082E+04 -1.24460E+01  2.79882E+04  3.49514E+00
  2.78195E+04  1.84472E+01  2.76983E+04 -4.35185E-01  2.75834E+04 -1.05321E+00  2.74243E+04  2.20237E+00
  2.73376E+04 -9.56107E+00  2.71922E+04 -1.29237E+01  2.70451E+04 -1.35120E+01  2.69291E+04  1.95115E+01
  2.68049E+04 -6.23727E+00  2.67027E+04 -2.27016E+01  2.65534E+04  4.62093E+00  2.64393E+04 -9.77894E+00
  2.63203E+04 -1.11813E+01  2.61602E+04 -1.30548E+01  2.60457E+04 -6.37364E+00  2.59424E+04 -1.46116E+01
  2.58310E+04 -8.79422E+00  2.56769E+04 -1.59801E+01  2.55917E+04 -2.07808E+01  2.54676E+04 -6.87444E+00
  2.53538E+04 -2.32929E+00  2.52193E+04 -1.91812E-01  2.50762E+04  1.94674E+01  2.49757E+04  7.59309E+00
  2.48553E+04 -3.47692E+00  2.47596E+04 -5.76810E+00  2.46070E+04 -1.92813E+01  2.45328E+04  1.77172E+01
  2.43804E+04  1.31440E+01  2.43028E+04 -1.89845E+01  2.41458E+04 -7.46481E+00  2.40327E+04  2.13258E+01
  2.39459E+04 -1.12420E+01  2.38128E+04 -1.09932E+00  2.37139E+04  1.59067E+01  2.36098E+04  4.65533E+00
  2.34731E+04  2.34561E+01  2.33855E+04  7.71732E+00  2.32582E+04  1.35985E+01  2.31825E+04  1.43835E+01
  2.30726E+04 -1.71265E+01  2.29532E+04  9.46219E+00  2.28174E+04 -1.02498E+01  2.27302E+04  2.28146E+01
  2.26251E+04 -1.91568E+01  2.25016E+04  1.07610E+01  2.23903E+04  1.47084E+01  2.23065E+04 -6.00726E+00
  2.21978E+04 -1.58845E+01  2.21095E+04 -1.15851E+01  2.19830E+04  6.74308E+00  2.18942E+04 -7.37327E+00
  2.17836E+04  2.24976E+01  2.16761E+04 -2.22065E+01  2.15869E+04  1.89770E+00  2.14622E+04  1.21108E+01
  2.13936E+04 -1.21572E+01  2.12865E+04 -1.43095E+01  2.11573E+04 -1.35791E+01  2.10951E+04  8.06114E+00
  2.09645E+04 -5.46927E+00  2.08847E+04 -4.27830E+00  2.07613E+04 -4.38757E+00  2.06824E+04 -7.77355E-02
  2.05654E+04 -5.63724E+00  2.04894E+04 -9.23834E+00  2.03769E+04 -1.91389E+01  2.03211E+04 -1.83050E+01
  2.01995E+04  1.01873E+00  2.01114E+04 -4.35007E+00  2.00273E+04  2.34912E+01  1.99182E+04  2.37892E+00
  1.98284E+04  1.82918E+01  1.97145E+04 -1.05509E+01  1.96635E+04  9.90088E+00  1.95663E+04  7.85143E+00
  1.94499E+04  1.32751E+00  1.93877E+04 -4.98700E+00  1.92504E+04  5.20608E+00  1.91989E+04 -1.05526E+00
  1.90766E+04  1.43623E+00  1.89900E+04  4.46526E+00  1.89295E+04 -1.20789E+01  1.88168E+04  1.42093E+01
  1.87231E+04  8.90192E+00  1.86282E+04  1.87291E+01  1.85467E+04 -1.86243E+01  1.84622E+04  1.98365E+01
  1.83928E+04  1.93777E+01  1.82877E+04 -6.85150E+00  1.82022E+04 -1.46737E+01  1.81347E+04  1.87685E+01
  1.80381E+04  2.23273E+01  1.79454E+04  2.06834E+01  1.78884E+04  8.65388E+00  1.78088E+04  8.42222E+00
  1.77273E+04 -6.76499E+00  1.76067E+04 -7.42065E+00  1.75264E+04  6.14994E+00  1.74580E+04 -2.09202E+01
  1.73655E+04  1.18935E+01  1.73017E+04  1.27409E+01  1.71933E+04  1.91501E+01  1.71283E+04 -8.40824E+00
  1.70432E+04  1.41192E+01  1.69765E+04  8.08334E+00  1.69016E+04  1.35469E+01  1.68074E+04  2.23505E+01
  1.67564E+04 -1.25383E+01  1.66647E+04 -4.74012E+00  1.65574E+04 -1.56474E+01  1.65004E+04 -1.01884E+00
  1.64272E+04 -9.12151E+00  1.63401E+04  3.87621E+00  1.62806E+04  2.20436E+01  1.62069E+04 -2.20920E+01
  1.61233E+04  2.09269E+00  1.60155E+04 -1.75778E+01  1.59587E+04  2.03564E+00  1.58666E+04 -1.08498E+01
  1.58042E+04 -1.86997E+00  1.57190E+04 -1.34598E+01  1.56527E+04  2.44349E-01  1.55699E+04  1.29257E+00
  1.55398E+04  2.29931E+01  1.54507E+04 -1.13473E+01  1.53601E+04 -5.63265E+00  1.53035E+04 -2.09641E+01
  1.52260E+04  2.73997E+00  1.51393E+04  1.78441E+01  1.50759E+04 -1.95689E+01  1.50357E+04 -1.54906E+01
  1.49547E+04 -1.16028E+01  1.48808E+04 -1.08635E+00  1.47825E+04 -1.25810E+01  1.47182E+04 -6.02016E+00
  1.46739E+04  3.80954E+00  1.46002E+04  5.62634E+00  1.45063E+04 -1.53840E+01  1.44593E+04  8.77481E+00
  1.43741E+04 -3.80384E+00  1.43368E+04  3.68171E+00  1.42650E+04 -2.55735E+00  1.41876E+04 -2.18149E+01
  1.41326E+04  1.84843E+01  1.40661E+04  1.87617E+01  1.40103E+04  7.25704E+00  1.39100E+04 -1.62795E+01
  1.38497E+04 -3.20314E+00  1.37851E+04 -3.95293E+00  1.37463E+04 -2.75249E+00  1.36678E+04 -2.10755E+01
  1.35954E+04  1.32984E+01  1.35479E+04  8.61140E+00  1.34722E+04  1.41591E+01  1.33982E+04  4.40756E+00
  1.33287E+04  1.59378E+01  1.32814E+04 -1.46929E+01  1.32244E+04  1.34225E+00  1.31676E+04  2.15561E+01
  1.31004E+04  1.86941E+00  1.30577E+04  1.63176E+01  1.29921E+04 -3.78741E-01  1.29244E+04  8.15969E+00
  1.28490E+04 -7.10382E+00  1.27873E+04 -2.16480E+01  1.27111E+04 -2.96944E+00  1.26884E+04 -2.32306E+01
  1.25886E+04 -2.93115E+00  1.25500E+04  8.99613E+00  1.25005E+04 -1.39961E+01  1.24152E+04  7.68624E+00
  1.23924E+04 -6.75582E+00  1.23235E+04  1.16272E+01  1.22467E+04  1.36820E+01  1.22003E+04  5.99214E+00
  1.21579E+04 -1.05193E+01  1.20936E+04  1.59603E+01  1.20537E+04  1.32292E+01  1.19596E+04  2.26883E+01
  1.19102E+04  8.27832E+00  1.18737E+04  2.08715E+01  1.18032E+04 -2.33763E+01  1.17275E+04  1.20034E+01
  1.16781E+04  2.03732E+01  1.16353E+04 -7.74965E+00  1.15766E+04  8.32564E+00  1.15211E+04 -1.74807E+01
  1.14735E+04 -8.50854E+00  1.14074E+04 -5.41369E+00  1.13836E+04  1.84604E+01  1.13338E+04 -6.72507E+00
  1.12560E+04 -1.50387E+01  1.12308E+04  1.44969E+01  1.11759E+04  6.31338E+00  1.11076E+04 -6.14412E+00
  1.10416E+04 -1.07895E+00  1.10229E+04 -1.87892E+01  1.09524E+04 -7.18348E+00  1.08969E+04 -6.22056E+00
  1.08492E+04 -1.64786E+01  1.08148E+04  2.14754E+01  1.07590E+04 -6.69586E+00  1.07035E+04 -1.77429E+01
  1.06451E+04 -1.71995E+01  1.05724E+04  1.93695E+01  1.05480E+04  1.49032E+01  1.04908E+04 -2.17421E+01
  1.04308E+04  4.46932E+00  1.03947E+04 -2.32741E+01  1.03418E+04  1.56343E+01  1.03094E+04  2.05981E+01
  1.02424E+04  4.24018E+00  1.02109E+04  1.57772E+01  1.01422E+04 -4.62275E+00  1.00930E+04  3.98354E-01
  1.00623E+04  9.50260E+00  1.00136E+04 -8.65978E-01  9.98278E+03 -1.86388E+01  9.89512E+03  1.60689E+01
  9.87679E+03  2.16080E+01  9.84155E+03 -5.34546E+00  9.75697E+03  1.86330E+01  9.72140E+03 -3.51378E+00
  9.66378E+03  3.80264E+00  9.65926E+03  1.34022E+01  9.57608E+03 -1.95758E+01  9.57365E+03  1.74047E+01
  9.49881E+03 -5.26496E+00  9.47441E+03 -1.20465E+01  9.42369E+03 -2.31866E+01  9.35723E+03  2.94305E+00
  9.30810E+03 -8.51571E+00  9.28036E+03  1.35032E+01  9.25446E+03  1.23934E+01  9.19668E+03  1.21564E+00
  9.14954E+03 -3.66541E+00  9.11412E+03 -1.90657E+01  9.06934E+03 -1.68739E+01  9.01436E+03 -8.18303E-01
  8.98925E+03 -1.38642E+01  8.92089E+03 -8.60464E+00  8.91249E+03  1.37798E+01  8.84785E+03 -2.03493E+01
  8.79900E+03 -2.03524E+01  8.77413E+03  1.73239E+01  8.72921E+03 -2.66089E+00  8.68179E+03  1.82234E+01
  8.65028E+03  7.49538E-01  8.59472E+03  2.23911E+01  8.57162E+03 -1.34783E+01  8.54640E+03  3.39033E+00
