 $NMID ID='dataset24', FMTDAT='(8E13.5)'
 TRAMP=1, VOLUME=1 $END
  4.99381E+04 -3.70863E-01  4.96947E+04 -1.26261E+01  4.94756E+04 -2.26007E+01  4.92506E+04 -2.33011E+01
  4.89770E+04  1.06818E+01  4.87591E+04  6.25079E+00  4.85551E+04 -1.25558E+01  4.83066E+04 -1.53978E+01
  4.80815E+04  1.78226E+01  4.78646E+04  2.18532E+01  4.76173E+04 -8.82613E+00  4.73991E+04 -1.68771E+01
  4.71706E+04 -6.91788E+00  4.69543E+04  7.71659E+00  4.67490E+04 -1.20307E+01  4.65223E+04  2.06024E+01
  4.62885E+04  2.25350E+01  4.60827E+04 -5.25483E+00  4.58679E+04 -4.58284E+00  4.56620E+04  1.23607E+01
  4.54559E+04 -9.98310E+00  4.52491E+04 -1.01332E+01  4.49928E+04  6.12745E+00  4.47914E+04 -1.09943E+01
  4.45726E+04 -1.21743E+01  4.43961E+04  2.27079E+01  4.41710E+04 -7.67093E+00  4.39492E+04  7.91554E-01
  4.37648E+04  1.83096E+01  4.35390E+04 -1.42611E+01  4.33366E+04 -1.96626E+01  4.31387E+04  9.05338E-01
  4.29572E+04 -1.19297E+01  4.27289E+04  9.02900E+00  4.25443E+04  1.61978E+01  4.23575E+04  7.98514E+00
  4.21209E+04 -4.24811E+00  4.19399E+04  1.25722E+01  4.17578E+04 -1.97713E+01  4.15706E+04  2.03935E+01
  4.13481E+04  1.94487E+01  4.11674E+04 -7.26833E+00  4.09622E+04  3.19799E-01  4.07614E+04 -1.22151E+01
  4.05868E+04  1.21170E+01  4.04032E+04 -2.22036E+01  4.01827E+04 -9.46459E+00  4.00187E+04 -2.26300E+01
  3.98039E+04 -1.42310E+01  3.96393E+04 -4.44749E-01  3.94626E+04  1.29627E+01  3.92633E+04 -1.41279E+01
  3.90624E+04 -1.46077E+01  3.88947E+04 -1.66606E+01  3.86913E+04 -5.08413E+00  3.85405E+04 -4.97426E+00
  3.83303E+04  1.67406E+01  3.81662E+04  2.21255E+01  3.79688E+04  7.68350E+00  3.78091E+04  8.11902E+00
  3.76559E+04 -1.87484E+01  3.74774E+04  5.72934E+00  3.72635E+04 -1.92409E+01  3.71234E+04  6.15336E+00
  3.69380E+04  1.29435E+01  3.67443E+04 -9.83343E+00  3.65903E+04  8.79162E+00  3.64282E+04 -8.76010E+00
  3.62239E+04  2.01358E+01  3.60491E+04 -1.94359E+01  3.59211E+04  2.04122E+00  3.57557E+04  1.75404E+01
  3.55870E+04  1.79316E+00  3.53911E+04  1.20433E+01  3.52170E+04  7.15121E+00  3.50646E+04 -1.46308E+01
  3.49158E+04 -1.82223E+01  3.47346E+04 -4.86150E+00  3.45953E+04 -9.17549E+00  3.44094E+04  1.17726E+01
  3.42515E+04  2.40786E+00  3.40645E+04  6.42621E+00  3.39490E+04 -7.52667E+00  3.37477E+04  4.45186E+00
  3.36033E+04  1.72261E+01  3.34611E+04  9.78746E+00  3.32932E+04 -1.56190E+01  3.31542E+04  1.20172E+01
  3.30036E+04 -6.91393E+00  3.28143E+04  2.16793E+01  3.26951E+04  1.47848E+01  3.25413E+04  1.19873E+01
  3.23863E+04 -1.06856E+00  3.21993E+04  1.54837E+01  3.20759E+04  1.72490E+01  3.19163E+04 -1.02239E+00
  3.17784E+04 -1.48203E+01  3.15960E+04 -3.25590E+00  3.14586E+04 -1.93561E+01  3.13017E+04 -7.96355E+00
  3.11748E+04  5.74073E+00  3.10346E+04  1.43546E+01  3.08927E+04  1.59399E+01  3.07347E+04  4.94303E+00
  3.05772E+04  1.33313E+01  3.04535E+04 -2.33421E+01  3.02850E+04 -1.75644E+01  3.01519E+04 -2.01521E+01
  2.99934E+04  2.29047E+01  2.98834E+04  1.71336E+01  2.97463E+04 -1.22379E+00  2.95795E+04 -6.56254E-01
  2.94642E+04  6.08751E+00  2.93096E+04 -6.51227E+00  2.91953E+04 -1.65146E+01  2.90382E+04 -3.38495E-01
  2.89050E+04 -2.12977E+01  2.87703E+04  1.11879E+00  2.86171E+04  1.08029E+01  2.85130E+04  1.18261E+01
  2.83852E+04 -1.47204E+01  2.82310E+04  1.22808E+01  2.80988E+04 -1.00457E+01  2.79550E+04  6.82162E+00
  2.78347E+04 -4.28507E+00  2.77012E+04  2.13780E+01  2.75965E+04  8.03181E+00  2.74664E+04  2.18813E+01
  2.72959E+04 -2.31960E+01  2.72081E+04 -7.03319E-01  2.70562E+04 -3.65893E+00  2.69223E+04 -1.26313E+01
  2.68107E+04  6.94726E+00  2.66743E+04  2.16446E+01  2.65482E+04 -1.99279E+00  2.64219E+04 -1.79537E+01
  2.63267E+04 -2.10292E-01  2.61729E+04  3.11570E+00  2.60482E+04 -2.24241E+01  2.59285E+04 -2.18393E+01
  2.58325E+04  1.20626E+01  2.56921E+04 -1.94124E+01  2.55530E+04 -1.55936E+01  2.54415E+04  1.04251E+01
  2.53230E+04  1.22421E+01  2.52166E+04  3.91767E+00  2.51143E+04 -3.51347E+00  2.49991E+04 -2.13891E+01
  2.48779E+04  1.24688E+01  2.47380E+04 -6.46707E+00  2.46048E+04  1.89405E+01  2.45086E+04  1.07370E+01
  2.43975E+04  1.62007E+01  2.42745E+04 -1.81038E+01  2.41863E+04  3.70089E+00  2.40746E+04 -3.85439E+00
  2.39282E+04 -1.12314E+01  2.38477E+04  1.42550E+01  2.37252E+04 -5.43583E+00  2.36146E+04  1.99146E+01
  2.35112E+04 -2.05237E+01  2.33952E+04 -1.55433E+01  2.32874E+04 -1.12921E+01  2.31767E+04  5.49036E+00
  2.30382E+04 -8.17586E+00  2.29351E+04 -1.17584E+01  2.28230E+04 -1.12795E+01  2.27204E+04 -1.76324E+01
  2.26169E+04 -1.52642E+01  2.25362E+04 -1.08947E+01  2.24316E+04  1.25002E+01  2.23148E+04  1.79854E+01
  2.22203E+04  2.10364E+01  2.20780E+04  3.85574E+00  2.20041E+04 -1.33467E+01  2.18882E+04 -1.56707E+01
  2.17672E+04 -7.47147E+00  2.16984E+04  2.29970E+01  2.15799E+04 -1.77369E+01  2.14890E+04 -4.99114E+00
  2.13995E+04  2.19532E+01  2.12744E+04 -2.31888E+00  2.11985E+04 -1.47882E+01  2.10730E+04 -2.13664E+01
  2.09964E+04 -2.23914E+00  2.08992E+04  1.77261E+01  2.07981E+04 -2.74114E+00  2.07001E+04 -6.12940E+00
  2.05930E+04  2.20429E+01  2.04938E+04 -2.24016E+01  2.03971E+04  1.13412E+01  2.03093E+04 -1.92389E+01
  2.02191E+04  7.66801E+00  2.00877E+04 -6.13378E+00  2.00205E+04 -1.45910E+01  1.99223E+04 -1.50489E+01
  1.98443E+04 -4.26261E+00  1.97401E+04  2.30399E+01  1.96527E+04  1.19884E+01  1.95415E+04 -2.10056E+01
  1.94387E+04 -3.72034E+00  1.93479E+04  1.86950E+01  1.92654E+04 -1.00630E+01  1.91715E+04 -9.11688E-01
  1.90975E+04  8.22025E+00  1.89887E+04  6.48090E+00  1.88923E+04  2.02384E+00  1.88246E+04  8.49484E+00
  1.87263E+04 -9.69073E+00  1.86260E+04  4.24806E+00  1.85381E+04 -1.70691E+01  1.84789E+04  8.29770E+00
  1.83836E+04 -9.40695E+00  1.82821E+04  4.67798E+00  1.82004E+04 -3.45314E+00  1.81495E+04  2.06889E+01
  1.80451E+04 -1.60997E+01  1.79366E+04 -1.85702E+01  1.78777E+04  1.11308E+01  1.77811E+04 -1.73548E+01
  1.76941E+04  1.25523E+01  1.76290E+04  1.92706E+01  1.75485E+04 -8.31779E+00  1.74809E+04  4.70380E+00
  1.73663E+04 -1.01529E+01  1.72764E+04  2.22855E+01  1.72217E+04 -1.41833E+01  1.71519E+04  8.68597E+00
  1.70604E+04  9.35478E+00  1.69530E+04 -1.40388E+01  1.68822E+04 -8.26407E+00  1.68049E+04 -1.39658E+00
  1.67529E+04 -4.51848E+00  1.66409E+04  3.50958E+00  1.65535E+04  1.27551E+01  1.64859E+04 -4.43945E+00
  1.64289E+04 -1.57490E+01  1.63345E+04 -1.61489E+01  1.62519E+04 -1.43692E+01  1.61800E+04 -5.66192E+00
  1.61276E+04  1.81770E+01  1.60609E+04 -4.24948E-01  1.59501E+04 -7.52942E+00  1.58790E+04 -8.76213E+00
  1.58177E+04 -7.48958E+00  1.57220E+04  1.78284E+00  1.56804E+04  1.84113E+01  1.55830E+04 -2.30552E+01
  1.55070E+04  1.66824E+01  1.54443E+04 -1.98389E+01  1.53745E+04 -5.05183E+00  1.53079E+04 -1.00176E+01
  1.52174E+04 -1.44491E+01  1.51457E+04  1.38261E+01  1.50921E+04  7.50368E+00  1.50258E+04  1.97757E+01
  1.49296E+04 -9.53617E+00  1.48947E+04 -1.93059E+01  1.48142E+04  1.34589E+00  1.47276E+04  8.21971E+00
  1.46805E+04  8.23116E+00  1.45948E+04 -1.47638E+01  1.45484E+04 -1.27232E+01  1.44368E+04  1.54843E+01
  1.43997E+04  1.36696E+01  1.43405E+04 -9.96329E+00  1.42667E+04 -6.62316E-01  1.41660E+04 -7.07506E+00
  1.40989E+04  1.58495E+01  1.40436E+04 -1.03439E+01  1.40069E+04  5.63110E+00  1.39382E+04  1.96685E+01
  1.38401E+04  2.31788E+01  1.38050E+04  2.09606E+01  1.37099E+04  1.86092E+01  1.36636E+04  1.71992E+01
  1.35955E+04 -1.28419E+01  1.35480E+04  1.68478E+01  1.34708E+04 -2.15004E+01  1.34249E+04 -2.13225E+01
  1.33372E+04  9.31693E+00  1.32865E+04  2.30855E+00  1.32351E+04  1.32154E+01  1.31586E+04 -8.93814E+00
  1.30826E+04 -1.12778E+01  1.30306E+04 -2.13134E+01  1.29555E+04 -1.28388E+01  1.29191E+04  1.10777E+01
  1.28738E+04 -6.86575E+00  1.27925E+04  1.36829E+01  1.27492E+04  2.79971E+00  1.26820E+04  7.03627E+00
  1.26165E+04  2.31828E+01  1.25500E+04 -1.92697E+01  1.24867E+04  7.97439E+00  1.24138E+04  1.91433E+01
  1.23643E+04 -1.50659E+01  1.22958E+04 -5.78565E+00  1.22457E+04  1.02768E+01  1.22154E+04  4.78737E+00
  1.21221E+04 -1.96611E+00  1.20828E+04 -1.96900E+01  1.20137E+04  1.88448E+01  1.19576E+04 -1.10980E+01
  1.19200E+04 -2.13703E-01  1.18685E+04  2.37474E-01  1.18087E+04  1.04341E+01  1.17277E+04 -4.00496E+00
  1.17143E+04 -7.46236E+00  1.16472E+04 -5.90395E+00  1.15751E+04  1.91830E+01  1.15453E+04  6.51574E+00
  1.14899E+04  4.85069E+00  1.14466E+04  4.08901E+00  1.13554E+04  2.22354E+01  1.13104E+04  2.15787E+01
  1.12720E+04 -4.38098E+00  1.12281E+04  1.69517E+01  1.11509E+04 -1.91520E+01  1.11045E+04  2.23994E+01
  1.10489E+04  2.19470E+01  1.09896E+04  4.53096E+00  1.09675E+04 -1.42022E+01  1.09107E+04  1.58918E+01
  1.08627E+04 -1.31785E+01  1.07955E+04  5.65276E+00  1.07393E+04 -6.36444E-01  1.06936E+04 -1.75463E+00
  1.06413E+04  1.61349E+01  1.06170E+04  2.07416E+01  1.05658E+04  2.01905E+01  1.04995E+04  1.38159E+01
  1.04647E+04  2.91301E+00  1.04021E+04 -2.30417E+01  1.03650E+04 -1.19960E+01  1.03174E+04 -1.48587E+01
  1.02284E+04  6.75324E+00  1.01786E+04  9.61291E+00  1.01630E+04 -5.40755E+00  1.01005E+04  4.48067E+00
  1.00542E+04  1.94173E+01  1.00162E+04  9.04937E-01  9.95697E+03  8.92482E+00  9.91610E+03 -1.30286E+01
  9.86184E+03 -6.29326E+00  9.83242E+03 -1.07745E+01  9.77987E+03 -1.93718E+00  9.71921E+03 -1.54775E+01
  9.69107E+03 -1.67145E+01  9.66260E+03 -1.13194E+01  9.60458E+03  3.94385E+00  9.53303E+03 -1.80907E+01
  9.48935E+03 -2.07906E+01  9.45231E+03  5.04675E+00  9.42750E+03 -6.96479E+00  9.37564E+03 -4.50677E+00
  9.32600E+03  5.60866E+00  9.26886E+03  2.13521E+01  9.24282E+03  7.74366E+00  9.18135E+03 -2.13066E+01
  9.13505E+03 -2.17083E+01  9.11649E+03 -3.67055E-01  9.08544E+03  1.30456E-01  9.04457E+03  3.28024E+00
  8.98887E+03 -1.53142E+01  8.94530E+03 -1.36763E+01  8.87563E+03  2.01368E+01  8.85438E+03 -1.03051E+01
  8.83311E+03 -1.81079E+01  8.78132E+03  9.64226E+00  8.71323E+03 -6.74602E+00  8.68365E+03  1.24753E+01
  8.65707E+03  9.74265E+00  8.63079E+03 -1.56925E+01  8.58151E+03 -1.83194E+01  8.51071E+03 -4.02874E+00
