 $NMID ID='dataset11', FMTDAT='(8E13.5)'
 TRAMP=1, VOLUME=1 $END
  1.02115E+02  3.69862E+01  1.84454E+02  6.16821E+01  1.49426E+02  1.15964E+02  9.58040E+01  1.46649E+02
  3.98880E+01  1.55081E+02 -1.15111E+01  1.45079E+02 -4.56298E+01  1.15692E+02 -7.07185E+01  7.22183E+01
 -6.99986E+01  3.89169E+01 -5.47403E+01  1.12509E+01 -3.14287E+01 -9.94575E+00 -7.67806E+00 -7.11243E+00
  4.14622E+00 -3.03092E-01  1.23061E+01  1.45507E+01  5.19930E+00  3.45861E+01 -9.84755E+00  4.43281E+01
 -2.45885E+01  4.78878E+01 -4.16467E+01  3.47637E+01 -5.70028E+01  1.42084E+01 -5.59849E+01 -6.19046E+00
 -5.45370E+01 -2.33285E+01 -3.27109E+01 -3.87616E+01 -1.60603E+01 -5.20376E+01  5.70312E+00 -4.74925E+01
  2.33728E+01 -2.72641E+01  2.97587E+01 -1.52182E+01  3.55688E+01  5.93103E+00  2.29810E+01  2.02313E+01
  5.85441E+00  2.79855E+01 -1.74750E+01  2.73014E+01 -2.68786E+01  2.21501E+01 -3.83984E+01  2.90139E+00
 -3.77388E+01 -2.08491E+01 -2.39423E+01 -3.23651E+01 -8.96994E+00 -3.96107E+01  1.04611E+01 -4.64085E+01
  2.63046E+01 -3.86473E+01  4.19069E+01 -1.89875E+01  4.00599E+01 -9.56812E+00  3.62079E+01  7.86128E+00
  2.51038E+01  2.28024E+01  1.48142E+01  2.64231E+01  3.57243E+00  2.51456E+01 -2.46559E+00  1.75516E+01
 -6.92497E+00  6.20989E+00 -2.55207E+00 -5.95933E-01  1.81469E-01 -4.59785E+00  1.08290E+01  5.54408E-01
  1.27185E+01  2.57277E+00  1.77917E+01  9.21050E+00  1.02644E+01  1.99046E+01  2.15087E+00  2.45399E+01
 -1.17836E+01  2.54817E+01 -2.12680E+01  2.09577E+01 -2.89380E+01  8.91297E+00 -3.45373E+01 -4.40726E+00
 -2.70227E+01 -1.86391E+01 -1.65509E+01 -2.74020E+01  4.34530E+00 -3.20660E+01  1.80890E+01 -2.35116E+01
  3.04160E+01 -1.51849E+01  3.97765E+01 -6.67162E-01  3.05615E+01  2.31711E+01  2.18774E+01  3.39522E+01
  4.42442E+00  3.88517E+01 -1.07753E+01  4.47363E+01 -2.70930E+01  3.62449E+01 -3.69397E+01  2.41293E+01
 -4.16401E+01  2.74466E+00 -3.82815E+01 -1.04362E+01 -2.85934E+01 -2.33242E+01 -1.64181E+01 -3.02346E+01
 -7.28201E-01 -2.58106E+01  7.93534E+00 -1.73348E+01  1.43495E+01 -5.11740E+00  1.15044E+01  8.22519E-01
  6.41413E+00  1.29171E+01 -9.08487E+00  1.04728E+01 -1.89088E+01  4.78838E+00 -2.56862E+01  9.03881E-01
 -1.93179E+01 -1.46163E+01 -1.95824E+01 -2.25872E+01 -4.53207E+00 -3.44594E+01  3.30201E+00 -2.87350E+01
  2.31656E+01 -2.27707E+01  3.21466E+01 -1.35128E+01  2.80772E+01 -1.29349E+00  2.55335E+01  1.13875E+01
  1.54849E+01  2.45384E+01  6.69669E+00  2.75750E+01 -1.01895E+01  2.24769E+01 -1.92158E+01  1.33999E+01
 -2.47010E+01  5.36650E+00 -1.94780E+01 -1.35644E+01 -1.18191E+01 -2.04983E+01  5.10755E+00 -2.99891E+01
  1.62923E+01 -2.11992E+01  2.84767E+01 -1.84244E+01  3.18778E+01 -4.86452E+00  3.20457E+01  1.46703E+01
  2.96937E+01  2.91334E+01  1.29324E+01  3.29458E+01  3.06686E-01  3.75351E+01 -1.48108E+01  3.74451E+01
 -3.00558E+01  1.99525E+01 -3.19104E+01  8.17709E+00 -3.47703E+01 -3.62477E+00 -2.13560E+01 -1.57090E+01
 -1.30231E+01 -1.90414E+01 -4.69914E+00 -1.92905E+01  5.54332E+00 -1.70316E+01  1.46212E+01 -9.88720E+00
  1.05676E+01 -1.20670E+00  8.97996E+00  3.57637E+00  3.09989E+00  1.04777E+01 -5.16340E+00  8.11773E+00
 -8.87703E+00  5.13660E-02 -8.61433E+00 -2.45803E+00 -6.74111E+00 -1.13660E+01  6.74102E-02 -1.97049E+01
  5.12769E+00 -1.40824E+01  1.64044E+01 -1.04940E+01  2.10920E+01 -2.56077E+00  1.91751E+01  6.41539E+00
  1.32885E+01  1.97884E+01  6.54524E+00  2.28891E+01 -6.77545E+00  2.36956E+01 -2.02826E+01  2.19062E+01
 -2.25194E+01  1.73410E+01 -3.08062E+01  1.14294E+00 -2.71891E+01 -1.21152E+01 -1.89521E+01 -2.49914E+01
 -1.26199E+01 -3.03869E+01  6.60462E-01 -3.02847E+01  1.73623E+01 -2.59717E+01  2.28933E+01 -2.05569E+01
  2.87927E+01 -9.74765E+00  2.33610E+01  1.96080E+00  2.09829E+01  1.12342E+01  8.77167E+00  1.52464E+01
  3.34561E+00  1.81530E+01  1.44953E+00  9.99232E+00 -1.93823E+00  4.67031E+00 -1.81525E+00  2.49926E+00
  3.31071E-01  2.74507E+00 -1.06367E+00  7.62104E-01  3.04541E+00  9.84217E-01  5.16226E+00  1.09859E+01
  4.59714E+00  1.50276E+01 -7.12529E-01  1.33739E+01 -1.40719E+01  1.91870E+01 -2.03669E+01  1.12848E+01
 -2.44823E+01  2.62209E+00 -2.85550E+01 -6.23466E+00 -2.33546E+01 -1.38588E+01 -1.68916E+01 -2.45803E+01
 -4.40500E+00 -2.34062E+01  2.16656E+00 -2.37776E+01  1.67460E+01 -1.91361E+01  2.13415E+01 -1.26585E+01
  2.37801E+01  3.29608E+00  1.68443E+01  1.02283E+01  1.35143E+01  2.16281E+01 -3.28498E+00  2.62855E+01
 -1.31000E+01  2.06146E+01 -1.87396E+01  1.00931E+01 -2.60249E+01  4.42866E-01 -2.28543E+01 -6.35763E+00
 -2.13494E+01 -1.44330E+01 -1.45703E+01 -2.47610E+01 -1.52137E+00 -2.84763E+01  8.94400E+00 -2.54554E+01
  1.26927E+01 -2.09198E+01  1.84573E+01 -1.34566E+01  1.78482E+01 -9.66723E+00  1.31346E+01 -3.80931E+00
  7.67913E+00 -1.45694E-01  1.10755E+01 -3.86813E+00  1.01778E+01 -3.17539E+00  1.44280E+01 -4.76441E+00
  1.57714E+01 -5.76920E+00  1.59685E+01 -4.86090E+00  2.01925E+01  1.60722E+00  2.65916E+01  9.33739E+00
  1.83399E+01  1.88555E+01  1.26320E+01  2.23839E+01  4.93170E+00  3.02727E+01 -6.46837E+00  2.98963E+01
 -1.12458E+01  2.80829E+01 -2.30282E+01  2.29138E+01 -2.86146E+01  1.33580E+01 -2.50564E+01  1.58369E+00
 -2.28064E+01 -1.17493E+01 -1.91485E+01 -1.86953E+01 -9.41580E+00 -1.82419E+01 -1.96457E+00 -1.71899E+01
  7.56992E+00 -8.32987E+00  1.30010E+01 -8.47455E+00  1.03704E+01  2.09501E+00  8.24900E+00  1.12589E+01
  4.97227E-01  6.97468E+00 -2.81935E+00  1.16460E+01 -1.23472E+01  6.69902E+00 -1.50759E+01  7.15225E-01
 -1.14842E+01 -9.47845E+00 -3.89186E+00 -1.42411E+01  3.88410E+00 -1.43795E+01  2.82730E+00 -1.17299E+01
  1.05043E+01 -3.27541E-01  1.13527E+01  3.74800E-01  9.99936E+00  8.59997E+00 -3.04356E+00  9.75981E+00
 -9.78506E+00  1.27207E+01 -1.46056E+01  4.03682E+00 -1.82569E+01 -2.49035E+00 -1.41069E+01 -8.73875E+00
 -1.57279E+01 -1.85562E+01 -4.98797E+00 -2.10357E+01  6.96635E+00 -2.54128E+01  1.45949E+01 -2.61745E+01
  2.40993E+01 -1.35829E+01  3.20853E+01 -7.10892E+00  2.92096E+01  8.27442E+00  1.99642E+01  1.68110E+01
  1.14960E+01  2.00156E+01  4.24255E+00  2.53548E+01 -5.92130E+00  2.37807E+01 -1.11208E+01  1.57404E+01
 -1.25204E+01  6.16163E+00 -1.40699E+01  4.30881E+00 -7.71003E+00 -7.41622E+00 -3.05863E+00 -8.62697E+00
  6.75276E-01 -3.82562E+00  8.83925E+00 -5.69288E+00  9.06342E+00 -6.47120E-02  1.00450E+01  2.45809E+00
  6.81281E+00  6.43248E+00  3.75560E+00  1.05637E+01 -6.38134E-01  7.11583E+00 -3.93276E+00  9.20717E+00
 -4.63769E+00  6.15461E+00 -2.77647E+00  4.56819E+00 -2.68343E+00  8.18527E-01 -5.06712E+00 -7.84044E-01
 -3.96609E-01  1.30544E+00 -2.11479E+00  3.32032E+00 -1.93230E+00  5.14983E+00 -1.30127E+00  1.01936E+01
 -5.98018E+00  1.45440E+01 -1.45217E+01  5.52888E+00 -1.57058E+01  4.32979E+00 -1.76304E+01 -6.60093E+00
 -1.75725E+01 -8.16309E+00 -1.90291E+01 -1.82379E+01 -6.31052E+00 -2.50179E+01 -3.15014E+00 -2.33471E+01
  1.01745E+01 -2.33550E+01  9.56081E+00 -1.57895E+01  1.41681E+01 -5.71156E+00  1.60000E+01 -2.23924E-01
  1.66419E+01  2.68983E+00  8.08796E+00  3.86513E+00  4.45700E+00  9.71710E+00 -3.52049E+00  6.70460E+00
 -1.80963E+00  3.32755E+00 -1.88052E+00 -3.40448E+00 -2.17529E+00 -8.93803E+00  1.28776E-01 -1.10704E+01
  1.13653E+01 -2.58668E+00  1.29632E+01 -3.49409E+00  8.82573E+00  2.48975E+00  7.46060E+00  1.01250E+01
  4.70185E+00  1.05650E+01  2.76629E+00  1.68523E+01 -7.04516E-01  8.63726E+00 -1.06762E+01  6.42322E+00
 -1.23258E+01  6.42394E+00 -9.96825E+00 -1.35968E+00 -6.48834E+00 -7.39019E+00 -1.37477E+00 -4.74429E+00
  8.34051E+00 -8.48625E+00  6.84439E+00 -3.41782E+00  9.09482E+00  4.60133E+00  1.19638E+01  1.10409E+01
  2.35267E+00  1.39077E+01  2.97365E+00  1.38141E+01 -9.71573E+00  1.34180E+01 -1.04975E+01  9.44176E+00
 -1.35584E+01  4.81180E+00 -2.01686E+01 -3.66715E-01 -1.82604E+01 -1.24114E+01 -1.29362E+01 -1.26857E+01
 -1.68833E+00 -1.33220E+01  2.28087E+00 -1.40589E+01  7.79443E+00 -1.05905E+01  9.28621E+00 -8.94926E+00
  1.09520E+01 -3.18375E+00  1.26985E+01  1.24143E+00  1.02383E+01  8.44931E+00  2.37109E+00  1.29419E+01
  1.50203E-01  1.10561E+01 -7.05611E+00  8.72903E+00 -5.94867E+00  2.28378E+00 -7.31421E+00  1.19063E-02
 -1.87327E+00  1.63673E-03 -3.57727E+00 -4.25368E+00 -2.01679E+00  5.53966E-01  3.06907E+00  2.99239E-01
  1.02544E+00 -4.31228E-01 -3.54875E-01  3.60675E+00 -4.42242E+00  6.87065E+00 -7.15059E+00  2.43591E+00
 -6.74725E+00 -4.79621E+00 -1.15344E+01 -2.34654E+00 -6.95148E+00 -1.33315E+01 -5.38245E+00 -1.21867E+01
  4.06697E+00 -1.17098E+01  1.11687E+01 -9.83377E+00  9.38910E+00 -1.21631E+01  1.51601E+01 -2.15813E+00
  1.27903E+01  2.58227E+00  1.40688E+01  1.08843E+01  8.12967E+00  1.25890E+01  7.22822E+00  1.58186E+01
 -1.84438E+00  1.36698E+01 -2.98860E+00  9.38416E+00 -6.84506E+00  7.18099E+00 -7.28175E+00  7.82239E-01
 -3.88626E+00 -4.67398E-01 -2.31698E+00  2.04062E+00 -4.60695E+00 -4.27723E+00 -1.82637E-01 -1.01174E-01
 -1.10322E+00  3.59175E+00 -1.05549E+00  3.73898E+00 -5.40290E+00  6.91862E-01 -4.65958E+00  2.42477E-01
 -7.82742E+00 -2.82013E+00 -1.08349E+01 -2.03422E+00 -4.17379E+00 -5.31441E+00 -1.85547E+00 -4.80680E+00
 -4.69266E+00 -7.90964E+00 -8.23832E-01 -1.07401E+01  1.42051E+00 -3.91735E+00  2.04823E+00  2.36402E+00
  4.64893E+00  2.16529E+00  4.66462E+00  7.16976E+00 -3.49395E+00  6.58678E+00 -7.72109E+00  7.25892E+00
 -7.30231E+00 -6.10915E-01 -7.56441E+00 -2.89191E+00 -8.82196E+00 -3.98683E+00 -5.76043E+00 -1.46366E+01
  9.43142E-01 -1.15717E+01  2.03486E+00 -1.67760E+01  1.20754E+01 -1.58386E+01  9.80449E+00 -1.00683E+01
  1.43800E+01 -4.53597E+00  1.71926E+01  2.34249E+00  1.00456E+01  9.75184E+00  6.51037E+00  1.26251E+01
  7.04635E+00  1.32755E+01  4.58148E-01  1.06351E+01 -3.62626E-01  9.14126E+00 -6.25880E+00  3.51827E+00
 -4.29459E+00  7.37080E+00 -3.75417E+00  6.13683E+00 -1.19658E+00 -9.12042E-01  8.44061E-01  3.66190E+00
  2.59667E+00  7.37814E+00  1.05006E+00  2.93896E+00 -2.59015E+00  2.33872E+00 -4.49822E+00  8.70547E+00
 -5.55552E+00  6.77756E+00 -8.41396E+00  3.89766E+00 -1.19625E+01 -7.55657E+00 -7.34914E+00 -8.41898E+00
