 $NMID ID='dataset5', FMTDAT='(8E13.5)'
 TRAMP=1, VOLUME=1 $END
  5.64785E+04  1.61804E+01  5.63119E+04  1.30749E+00  5.61663E+04 -1.47527E+00  5.60124E+04  1.61777E+01
  5.58474E+04  2.04189E+01  5.57169E+04 -8.70151E+00  5.55536E+04 -1.31047E+01  5.53902E+04 -1.38714E+01
  5.52602E+04  6.70625E+00  5.51019E+04 -9.34746E+00  5.49380E+04 -1.64242E+01  5.47938E+04 -1.28917E+01
  5.46200E+04 -2.14927E+01  5.44631E+04 -2.27974E+01  5.42726E+04  1.34028E+01  5.41467E+04 -2.56498E+01
  5.39930E+04 -1.26269E+01  5.38068E+04 -1.10439E+01  5.36660E+04 -1.49629E+01  5.34974E+04 -1.17567E+00
  5.33120E+04 -2.47624E+01  5.31699E+04 -1.90031E+01  5.29836E+04  2.00159E+01  5.28431E+04 -9.29585E+00
  5.26827E+04 -1.47556E+01  5.25170E+04 -9.28829E+00  5.23213E+04 -7.92475E+00  5.21838E+04  2.37638E+01
  5.20166E+04 -8.28110E+00  5.18339E+04 -1.47844E+01  5.16967E+04  1.20945E+01  5.14832E+04  1.76299E+01
  5.13150E+04 -1.68295E+01  5.11774E+04 -9.18907E+00  5.10186E+04 -2.07575E+01  5.08452E+04  4.01898E+00
  5.06794E+04 -2.27432E+01  5.04959E+04  1.83310E+01  5.03204E+04  2.19499E+01  5.01654E+04 -5.80802E+00
  4.99752E+04  2.37202E+01  4.98235E+04  1.86557E+01  4.96241E+04  1.60293E+01  4.94676E+04 -1.93709E+01
  4.92613E+04  2.43336E+01  4.91352E+04 -8.46887E+00  4.89580E+04  2.45187E+01  4.87367E+04  2.29982E+01
  4.86045E+04  1.78277E+01  4.84304E+04 -1.61563E+01  4.82316E+04  1.46545E+01  4.80827E+04 -1.42225E+01
  4.78734E+04 -1.92334E+01  4.77187E+04 -1.26067E+01  4.75272E+04 -2.41264E+01  4.73362E+04  3.33158E+00
  4.71841E+04 -1.51548E+01  4.69994E+04  8.70724E+00  4.68240E+04 -5.66621E+00  4.66286E+04 -4.14193E+00
  4.64560E+04  1.11063E+01  4.63137E+04 -2.27810E+01  4.60925E+04 -1.32557E+00  4.59568E+04 -9.88813E+00
  4.57416E+04 -2.04647E+01  4.55685E+04 -1.31342E+00  4.54051E+04 -2.56594E+01  4.52445E+04 -9.14925E+00
  4.50413E+04  1.66162E+01  4.48892E+04 -1.48018E+01  4.46979E+04 -2.36703E+01  4.44867E+04 -1.11314E+01
  4.43401E+04 -2.03957E+01  4.41260E+04 -1.96904E+01  4.39445E+04  1.60636E+01  4.37603E+04 -9.32232E+00
  4.35981E+04  1.05322E+00  4.34015E+04  2.20437E+01  4.32333E+04 -1.41549E+01  4.30746E+04 -1.99125E+01
  4.28605E+04  1.78891E+01  4.27235E+04 -2.47187E+00  4.25001E+04 -1.28388E+01  4.23194E+04 -1.62609E+01
  4.21465E+04  1.06904E+01  4.19906E+04 -3.33227E+00  4.18128E+04 -2.02021E+01  4.15987E+04 -1.34888E+01
  4.14146E+04 -2.55860E+00  4.12477E+04  1.72098E+01  4.10902E+04  9.85094E+00  4.08749E+04  1.08358E+01
  4.06929E+04  1.41585E+01  4.05601E+04  1.75321E+01  4.03363E+04 -2.37556E+01  4.01921E+04 -1.29925E+01
  4.00130E+04  1.40855E+01  3.98048E+04 -4.91095E+00  3.96408E+04 -1.81456E+01  3.94266E+04  8.36672E+00
  3.92855E+04 -2.49632E+00  3.90743E+04  2.46020E+01  3.89160E+04  2.52319E+01  3.87147E+04  2.04873E+01
  3.85689E+04 -1.85473E+01  3.83806E+04 -1.77461E+00  3.82135E+04  1.98245E+01  3.79922E+04 -4.74940E+00
  3.78535E+04 -2.25582E+01  3.76332E+04  1.51357E+01  3.74806E+04 -2.22094E+00  3.72691E+04  5.70215E+00
  3.71109E+04 -1.18291E+01  3.69565E+04 -1.05733E+00  3.67707E+04  1.02708E+01  3.65653E+04 -2.20469E+01
  3.64176E+04  7.83899E+00  3.62108E+04  1.79606E+01  3.60300E+04  4.39976E+00  3.58708E+04 -1.86406E+01
  3.56676E+04  5.20914E-01  3.55229E+04  1.06703E+01  3.53049E+04  5.28468E+00  3.51458E+04 -5.15369E+00
  3.49621E+04 -5.75324E+00  3.47925E+04 -8.75398E+00  3.46172E+04  2.40765E+01  3.44393E+04 -1.31941E+01
  3.42835E+04 -3.79939E+00  3.41009E+04 -1.14681E+01  3.39157E+04  2.32968E+01  3.37464E+04 -2.19453E+01
  3.35755E+04  1.56113E+01  3.33778E+04 -1.01796E+01  3.31975E+04 -2.53659E+01  3.30448E+04 -1.72090E+01
  3.28732E+04 -1.95518E+01  3.26919E+04  1.61920E+01  3.25304E+04 -2.38467E+01  3.23627E+04  1.09573E+01
  3.21635E+04 -1.07986E+01  3.19965E+04  6.17495E+00  3.18209E+04 -8.99063E+00  3.16863E+04  9.17926E+00
  3.14836E+04  1.53667E+01  3.12998E+04  9.30107E+00  3.11643E+04  1.17292E+01  3.09643E+04 -1.74307E+01
  3.08050E+04 -2.31681E+01  3.06157E+04 -2.38778E+01  3.04653E+04 -2.27473E+01  3.03164E+04 -3.41204E+00
  3.01466E+04 -2.97481E+00  2.99522E+04 -4.66050E+00  2.98175E+04  5.77381E+00  2.96128E+04 -1.44189E+00
  2.94719E+04 -1.64254E+01  2.92907E+04 -1.30989E+01  2.91268E+04  1.97859E+01  2.89692E+04 -2.56208E+01
  2.88172E+04 -2.51205E+01  2.86408E+04 -2.37976E+00  2.84814E+04  9.04686E+00  2.83064E+04  1.48277E+01
  2.81519E+04  2.17327E+01  2.79947E+04 -1.57596E+01  2.78136E+04  7.46403E+00  2.76205E+04  1.51066E+01
  2.74705E+04 -1.94996E+01  2.72950E+04 -1.99646E+01  2.71355E+04  7.03412E+00  2.69746E+04  1.72623E+01
  2.68309E+04 -1.97529E+01  2.66947E+04  3.23458E+00  2.65167E+04 -1.06720E+01  2.63807E+04 -5.16212E+00
  2.61944E+04 -3.80308E+00  2.60200E+04  8.80152E+00  2.58852E+04 -1.39893E+00  2.57004E+04  2.49658E+01
  2.55891E+04 -1.82124E+01  2.54083E+04 -7.61458E+00  2.52761E+04  1.33068E+01  2.50885E+04 -1.48270E+01
  2.49657E+04 -2.30655E+01  2.48083E+04 -1.66003E+01  2.46212E+04  8.90668E+00  2.45061E+04  1.59904E+01
  2.43526E+04  6.32440E+00  2.41663E+04  1.87690E+01  2.40307E+04 -1.32392E+01  2.38520E+04 -6.31995E+00
  2.37420E+04  3.83251E+00  2.35505E+04 -2.18772E+01  2.34230E+04  1.26113E+01  2.32442E+04  1.54753E+01
  2.31309E+04  9.64257E+00  2.29509E+04 -7.80168E+00  2.28391E+04  2.00290E+01  2.26796E+04  5.81476E+00
  2.25257E+04  2.32181E+01  2.23976E+04  8.60861E+00  2.22604E+04  3.30567E-01  2.20893E+04 -1.88092E+01
  2.19499E+04  1.63333E-01  2.17958E+04  3.72685E+00  2.16518E+04 -2.13554E+01  2.15296E+04  4.28105E+00
  2.13916E+04  2.30919E-01  2.12202E+04  1.48529E+01  2.10711E+04  2.60530E+00  2.09294E+04 -1.23636E+01
  2.07889E+04  1.44464E+01  2.06541E+04  5.16749E-01  2.05487E+04 -1.65846E+00  2.03755E+04  2.21059E+01
  2.02588E+04 -1.28454E+01  2.00867E+04 -1.93697E+01  1.99795E+04  5.89628E+00  1.98281E+04  1.92217E+01
  1.97189E+04 -1.17139E+01  1.95557E+04  1.49025E+01  1.94524E+04  4.95531E+00  1.93033E+04  6.70412E+00
  1.91470E+04  2.54127E+01  1.90144E+04  2.09263E+01  1.88703E+04 -2.60339E+00  1.87355E+04  5.66062E+00
  1.86111E+04 -1.04514E+01  1.85113E+04  2.24905E+01  1.83756E+04 -3.01173E+00  1.82611E+04 -1.25826E+01
  1.80983E+04  9.88810E+00  1.79570E+04  1.29229E+01  1.78711E+04  1.54930E+01  1.77169E+04 -7.14487E+00
  1.75941E+04  1.67378E+00  1.74558E+04 -1.51172E+00  1.73406E+04  2.22584E+01  1.72153E+04 -2.65258E+00
  1.70879E+04  3.45341E-01  1.69867E+04  2.40702E+01  1.68467E+04 -2.23207E+01  1.67008E+04  1.26609E+01
  1.66096E+04  1.22817E+01  1.64861E+04  5.18788E-01  1.63471E+04 -5.17816E+00  1.62328E+04 -2.88365E+00
  1.61109E+04 -1.71777E+01  1.59954E+04  1.31371E+01  1.58743E+04 -1.30375E+01  1.57367E+04  2.45852E+01
  1.56442E+04  1.11790E+01  1.55397E+04 -2.41680E+01  1.54168E+04 -9.12908E+00  1.53107E+04 -1.83393E+01
  1.51833E+04 -1.06543E+01  1.50423E+04  7.53545E+00  1.49520E+04 -2.24605E+01  1.48453E+04 -1.82459E+01
  1.47299E+04  9.85746E+00  1.46073E+04 -1.69745E+01  1.44759E+04 -1.26097E+01  1.43862E+04  2.02658E+01
  1.42724E+04  1.33977E+01  1.41788E+04  2.54378E+01  1.40653E+04  1.53050E+01  1.39652E+04  5.30068E+00
  1.38471E+04  1.92577E+01  1.37475E+04  1.77373E+01  1.36105E+04 -7.73640E+00  1.34938E+04  1.08862E+00
  1.34285E+04 -1.61503E+01  1.33077E+04  1.09711E+01  1.32174E+04 -1.01757E+01  1.31103E+04 -2.31692E+01
  1.29753E+04 -2.07181E+01  1.28565E+04  3.23694E+00  1.27619E+04  2.24094E+01  1.26833E+04  2.26482E+00
  1.25613E+04 -6.95229E+00  1.24958E+04  2.45544E+01  1.23764E+04  1.17523E-01  1.22607E+04  1.70503E+01
  1.21886E+04 -2.12825E+01  1.20756E+04 -1.44858E+01  1.19692E+04 -7.00867E+00  1.18696E+04  1.33935E+01
  1.17616E+04  2.39129E+01  1.16975E+04 -4.60155E+00  1.15772E+04 -1.55303E+01  1.15123E+04 -1.16429E+01
  1.13978E+04  2.49611E+01  1.12995E+04 -2.17866E+01  1.12361E+04  1.43272E+01  1.11164E+04  5.21704E+00
  1.10331E+04 -2.27258E+01  1.09185E+04 -1.46888E+00  1.08375E+04 -5.48038E+00  1.07485E+04 -8.02322E+00
  1.06794E+04 -2.78348E+00  1.05840E+04 -6.84016E+00  1.04675E+04 -1.74519E+01  1.04196E+04 -7.09702E+00
  1.02893E+04 -3.27048E-01  1.02395E+04 -5.01868E+00  1.01220E+04  1.19550E+01  1.00645E+04 -2.36451E+01
  9.98325E+03 -2.28765E+01  9.88201E+03  4.14285E+00  9.77631E+03  2.40984E+01  9.69781E+03  2.41256E+01
  9.62429E+03 -4.00789E+00  9.54322E+03 -1.92478E+01  9.46241E+03  1.95011E+00  9.38880E+03  2.44889E+01
  9.27647E+03  1.93652E+01  9.23432E+03 -2.25382E-01  9.10704E+03 -2.45911E+01  9.03010E+03  2.02286E+01
  8.96678E+03  3.17791E+00  8.91083E+03 -4.40237E+00  8.80684E+03  2.49347E+01  8.74923E+03 -6.25064E+00
  8.65740E+03 -1.58273E+01  8.59569E+03 -2.94866E+00  8.48763E+03  1.69201E+01  8.41224E+03 -2.30311E+01
  8.35833E+03  1.54667E+01  8.28337E+03  4.02893E+00  8.22587E+03  1.59833E+01  8.12884E+03  1.58087E+01
  8.05670E+03 -3.15236E+00  8.00148E+03  4.21089E+00  7.92608E+03 -3.42684E+00  7.85275E+03  1.24776E+01
  7.76154E+03  5.83873E+00  7.68131E+03 -4.75963E+00  7.64499E+03 -5.35503E+00  7.55619E+03  2.28103E+00
  7.47997E+03 -2.31172E+00  7.40010E+03 -9.74881E+00  7.34998E+03 -7.25975E+00  7.30798E+03 -2.38424E+01
  7.22191E+03 -1.33678E+01  7.15530E+03 -7.55054E+00  7.09271E+03  1.24267E+01  7.03430E+03  1.36229E+01
  6.97338E+03  5.12836E+00  6.86795E+03  2.41400E+00  6.80281E+03  2.13949E+01  6.76597E+03 -2.22032E+01
  6.71004E+03  8.31400E+00  6.63465E+03 -2.06419E+01  6.59341E+03 -2.45320E+01  6.50674E+03  1.98752E+01
  6.43251E+03 -2.54947E+01  6.38044E+03 -2.36734E+01  6.32492E+03 -8.80480E+00  6.24098E+03 -1.25794E+01
  6.18394E+03 -1.69208E+01  6.14127E+03 -4.36133E+00  6.08846E+03  1.04267E+01  6.00873E+03  1.12352E+01
  5.97612E+03  1.62731E+01  5.89850E+03 -2.05693E+01  5.84844E+03 -4.38056E+00  5.77784E+03  1.80011E+01
  5.72163E+03 -2.32759E+01  5.71144E+03  9.93231E+00  5.62956E+03  1.53251E+00  5.58611E+03  6.16609E+00
  5.53991E+03  8.08471E+00  5.45903E+03  5.27755E+00  5.41010E+03 -4.10626E+00  5.37943E+03 -7.60700E+00
