 $NMID ID='dataset20', FMTDAT='(8E13.5)'
 TRAMP=1, VOLUME=1 $END
  2.84032E+02  1.11625E+02  5.16616E+02  2.16653E+02  3.50477E+02  3.76119E+02  1.54411E+02  4.58639E+02
 -2.99418E+01  4.27164E+02 -1.59012E+02  3.01171E+02 -2.21796E+02  1.76020E+02 -2.01477E+02  5.63411E+01
 -1.29518E+02 -2.53283E+01 -4.51410E+01 -5.24040E+01  6.46069E-01 -3.52208E+01  4.33710E+01  2.01374E+01
  3.03841E+01  5.53743E+01 -3.14632E+00  8.49028E+01 -5.01140E+01  1.00371E+02 -6.81046E+01  7.02118E+01
 -8.32192E+01  4.95112E+01 -9.09527E+01  7.71343E+00 -1.03276E+02  2.78957E+00 -8.93585E+01 -3.86500E+01
 -8.49643E+01 -4.39347E+01 -4.98410E+01 -6.33807E+01 -2.50558E+01 -8.74254E+01  5.70260E+00 -9.37559E+01
  3.63479E+01 -7.50185E+01  4.91845E+01 -4.08751E+01  5.21653E+01 -5.40706E+00  5.44043E+01  3.33589E+01
  1.76677E+01  5.21438E+01 -2.78665E+01  4.35026E+01 -4.27864E+01  2.71802E+01 -6.85124E+01 -4.25546E+00
 -6.04743E+01 -3.61139E+01 -4.16191E+01 -7.41737E+01 -1.04391E+01 -8.97523E+01  2.56279E+01 -7.76758E+01
  6.04991E+01 -6.18724E+01  6.19862E+01 -3.68800E+01  7.35909E+01 -1.26989E+01  6.00587E+01  2.55424E+00
  6.02679E+01  2.77519E+01  3.76475E+01  5.21030E+01  3.62961E+01  5.96782E+01  3.04788E+00  5.39794E+01
 -1.28084E+01  4.86980E+01 -1.99189E+01  3.94689E+01 -2.13592E+01  1.28019E+01 -1.33847E+01  9.58703E+00
  3.88243E-02 -1.59258E+01  4.00399E+00 -1.09973E+01  2.29405E+01  1.36242E+01  2.76614E+01  1.68567E+01
  6.79677E+00  4.37123E+01 -1.56288E+01  4.92909E+01 -4.19568E+01  3.47980E+01 -6.14945E+01  2.96913E-01
 -7.23645E+01 -2.69164E+01 -4.14758E+01 -4.77460E+01 -1.42838E+01 -7.57701E+01  3.90901E+01 -6.38434E+01
  6.21208E+01 -3.83191E+01  6.35899E+01 -7.49598E+00  6.89087E+01  1.95734E+01  3.56034E+01  5.92027E+01
  2.28496E+01  5.47184E+01 -7.61905E+00  6.38730E+01 -3.83722E+01  3.58498E+01 -3.23142E+01  2.93424E+01
 -4.16868E+01  6.94182E+00 -2.76744E+01 -1.81971E+01 -1.80773E+01 -1.26007E+01 -4.68753E+00 -9.79610E+00
 -1.60660E+01 -1.90467E+01  5.58560E+00 -2.95565E+00 -9.98316E+00 -1.22860E+01  1.26761E+01 -1.29934E+01
 -3.52394E+00  1.97190E+00 -9.70710E+00  7.62294E+00 -1.58030E+01  1.58740E+01 -2.72769E+01  1.20289E+01
 -4.46564E+01 -9.01951E+00 -4.58032E+01 -1.00113E+01 -2.61900E+01 -3.83998E+01 -8.49544E+00 -5.50513E+01
  1.81836E+01 -6.10433E+01  4.81736E+01 -4.11552E+01  6.55156E+01 -1.42217E+01  5.67485E+01  1.43953E+01
  5.18203E+01  2.45014E+01  1.79177E+01  3.23146E+01 -5.67666E+00  4.71483E+01 -3.59813E+01  2.43901E+01
 -2.66789E+01  1.10265E+01 -2.69552E+01 -3.05721E+01 -7.81497E+00 -3.94211E+01  2.51555E+01 -3.64590E+01
  2.97708E+01 -1.88131E+01  5.25453E+01 -8.62160E+00  5.45956E+01  1.44816E+01  4.43603E+01  3.91140E+01
  2.08326E+01  4.93864E+01 -7.65523E+00  4.67844E+01 -1.07762E+01  4.28665E+01 -3.00327E+01  4.31399E+01
 -5.61030E+01  3.34073E+01 -5.45866E+01  1.08076E+01 -4.41192E+01 -1.51308E+01 -4.90247E+01 -3.99742E+01
 -3.76904E+01 -4.43824E+01  1.22672E-01 -5.10811E+01  2.25704E+01 -4.18076E+01  1.77849E+01 -3.55570E+01
  4.40818E+01 -1.06099E+01  1.92626E+01  1.29396E+01  2.44876E+01  2.12625E+01  2.43252E+00  2.13543E+01
 -1.92054E+01  2.22182E+01 -1.90712E+01 -4.59536E+00 -8.23669E+00 -2.24473E+01 -8.68087E+00 -1.44932E+01
  1.89406E+01 -2.27267E+01  1.82675E+01 -9.52393E+00  1.74829E+01  4.95459E+00  1.80302E+01  2.55977E+01
  2.22757E+01  1.88098E+01  8.62064E-01  3.12514E+01 -1.57302E+01  2.86584E+01 -3.73486E+01  2.96089E+01
 -3.72658E+01  8.81584E+00 -3.61824E+01 -8.78554E+00 -3.77833E+01 -2.15992E+01 -1.81092E+01 -2.26277E+01
 -1.77875E+01 -4.06215E+01  3.94639E+00 -2.58487E+01  6.80940E+00 -3.61002E+01  2.50062E+01 -2.88342E+01
  2.69202E+01 -8.23683E+00  4.61433E+01 -1.26284E+00  4.22348E+01  1.13920E+01  3.01982E+01  1.80262E+01
  1.11602E+01  4.10510E+01 -9.92080E+00  3.79699E+01 -2.24675E+01  2.52585E+01 -2.91710E+01  5.21443E+00
 -2.35792E+01  1.07592E+01 -1.91048E+01 -8.14659E+00 -8.95887E+00 -1.26477E+01 -1.02705E+01 -2.49835E+00
  4.87128E+00  1.59848E+00 -1.22226E+01  1.24724E+01 -1.15182E+00  9.78726E+00 -1.53578E+01 -2.37724E+00
 -2.27755E+01 -4.77226E+00 -2.49253E+01 -7.71496E+00 -2.49229E+01 -2.82916E+01 -9.87229E+00 -2.68324E+01
  8.53233E+00 -3.15511E+01  9.22195E+00 -3.27644E+01  3.08494E+01 -3.28078E+01  2.16221E+01 -1.27223E+01
  2.30845E+01  2.79765E+00  3.33548E+01  2.86649E+01  6.67616E+00  2.85300E+01  3.53859E+00  3.12175E+01
 -2.56407E+01  3.10001E+01 -3.64450E+01  2.77866E+01 -3.61514E+01  1.26795E+01 -3.62767E+01 -8.50920E+00
 -2.43343E+01 -2.84924E+01 -2.47717E+01 -3.03000E+01 -1.16441E+01 -4.70459E+01  4.82146E+00 -4.88102E+01
  2.80155E+01 -3.90360E+01  1.60895E+01 -1.50944E+01  1.72429E+01 -1.37688E+01  3.33256E+01 -1.46949E+01
  2.36982E+01 -4.67765E+00  1.29897E+01 -7.07000E+00  2.17811E+01  9.22115E+00  1.87210E+01 -4.73708E+00
  2.31064E+01 -4.17260E+00  3.44853E+01  5.33120E+00  3.46240E+01  1.97319E+01  2.66133E+01  2.37514E+01
  8.67724E+00  3.87588E+01  1.21270E+01  3.03405E+01 -3.07123E+00  3.27058E+01 -2.08504E+01  4.66904E+01
 -2.41928E+01  2.84315E+01 -3.77853E+01  2.42068E+01 -2.72912E+01  1.36457E+01 -2.88743E+01  1.06727E+01
 -2.27653E+01 -1.62421E+01 -2.19613E+01 -1.06740E+01 -7.64662E+00 -3.22772E+01 -1.07909E+01 -2.73387E+01
  9.93854E+00 -3.32488E+01  1.51258E+01 -9.71181E+00  9.61350E+00 -1.51032E+01  6.99256E+00 -3.73510E+00
  1.65708E+01  5.90739E+00 -7.41183E+00  9.92908E+00 -4.77675E+00 -3.91201E+00 -1.59462E+01 -7.75349E+00
  4.26454E+00 -4.79953E+00 -1.12318E+00 -1.30855E+01  9.55805E+00 -9.36963E-01  7.73133E+00 -7.45109E+00
  4.69941E+00 -8.38300E+00  1.73510E+01 -2.74551E-01  1.19425E+01  1.00280E+01 -7.72193E+00  1.31020E+01
 -1.36839E+01  8.74312E+00 -2.23324E+01 -5.53304E+00 -1.80254E+01 -9.93603E+00 -5.74763E+00 -1.92584E+01
 -2.07768E+01 -2.57489E+01 -1.38590E+01 -1.81547E+01  3.57160E+00 -1.79991E+01  7.05873E+00 -2.37499E+01
  2.52588E+01 -2.57916E+01  2.77349E+01 -1.18495E+01  2.38475E+01 -6.64486E+00  2.36973E+01  5.70355E+00
  1.45932E+01  1.70546E+01  8.76744E+00  1.34816E+01 -1.39633E+00  2.31476E+01 -1.05199E+01  1.57804E+01
 -1.55399E+01  9.50831E+00 -2.51988E+01  2.02289E+00 -1.10855E+00 -1.03628E+01  3.23952E+00  2.47979E+00
  6.85324E+00 -3.53639E+00  9.49926E-01  3.86918E+00 -5.60024E-01  9.36090E+00 -2.91985E+00  9.59508E+00
 -8.36911E-01  1.24973E+01  1.14136E+00  5.54835E-01 -1.39260E+01  7.22170E+00 -9.55048E+00  1.47874E+01
 -5.71015E+00  4.25004E+00 -1.44586E+01 -3.28553E-01 -1.17166E+01 -1.01632E+01  2.91586E+00 -6.61364E+00
  7.23501E+00 -4.96173E-01 -4.86058E+00  1.00698E+01  9.10638E+00  3.40563E+00  6.70090E+00  1.58217E+01
 -1.58698E+01  4.13576E+00 -1.50283E+01  1.42322E+01 -8.08144E+00  4.19673E+00 -1.15805E+01 -9.97617E-01
 -2.50183E+01 -1.43644E+01 -1.06096E+01 -9.27332E+00 -1.65248E+01 -9.73751E+00 -9.89929E+00 -2.76018E+01
  4.90345E+00 -2.48993E+01  7.54669E+00 -1.22366E+01  1.34537E+01  1.98755E+00  9.39321E+00 -6.12825E+00
  1.35242E-01 -5.89979E+00  7.11391E+00  4.36439E+00  6.65572E+00 -3.75333E+00  5.84660E+00  2.16883E+00
 -6.92345E-01 -1.47475E+01 -4.54926E+00  1.98320E+00  1.10250E+01 -1.44243E+01  8.16955E-01 -1.67612E+00
  1.38813E+01 -1.79843E+01  9.35693E+00  3.33859E+00  1.94458E+01  1.28931E+01  1.61221E+01  8.86243E+00
  9.09416E+00  3.28649E+00 -2.04876E-01  2.21860E+01  7.53349E+00  2.47782E+01 -1.24117E+01  2.22497E+01
 -1.13240E+01  5.71540E+00 -1.85591E+01  1.04603E+01 -1.97216E+01 -9.93320E+00 -9.53228E+00 -1.12369E+01
 -9.16118E+00 -1.82912E+00  1.04681E+01 -4.82150E+00 -4.38284E+00 -1.21235E+01  1.56487E+01  8.01716E+00
  1.37731E+01  6.51409E+00 -4.69191E+00  6.03510E+00 -1.35169E+01  1.47214E+01 -1.12936E+01  1.76440E+01
 -1.86977E+01 -4.72317E+00 -1.87055E+01 -6.48175E-01 -6.61009E+00 -4.83137E-01 -1.24115E+01 -1.40559E+01
  7.17234E+00 -7.86725E+00  2.22196E+00 -1.67135E+01  3.20787E+00 -2.07223E+01  1.56716E+01 -1.19918E+01
  9.22290E+00  1.25142E+01  1.12546E+01  1.74953E+01  1.61238E+01  2.26058E+01 -2.87146E+00  1.11666E+01
 -7.61100E+00  1.07124E+01 -6.43861E+00  1.66514E+01 -4.27006E+00  1.68540E+01 -1.06251E+01  1.52878E+01
 -6.41080E+00  9.66408E-01 -1.81012E+01 -5.94928E+00 -8.95536E+00 -1.52771E+01 -9.76392E+00 -1.35990E+01
  7.39738E+00 -1.29098E+01 -9.45044E+00 -1.89309E-01  3.04806E+00 -1.07147E+01 -1.11598E+01 -7.30442E-01
  4.46772E+00  2.05727E+00 -1.30133E+01 -8.27440E-01 -6.17853E+00 -1.20125E+01  4.97978E+00 -2.29828E+01
 -2.02582E+00 -8.63477E+00  1.02337E+01 -4.07931E+00  2.18429E+01  5.25634E-01  1.77137E+01  3.86054E+00
  1.24906E+01  1.29840E+01  6.78018E+00 -5.17733E-01  1.89406E+01  1.63272E+01  4.34990E+00  1.37008E+01
  1.25294E+00  2.04608E+01 -1.34119E+00  6.87277E+00 -1.17494E+01  2.64729E+00 -1.26112E+01  1.12401E+01
  4.61937E-01 -9.22325E+00  2.27219E+00  6.23461E-01  5.78593E+00 -1.71022E+00  2.65965E+00 -9.68346E+00
  4.50875E+00 -3.07524E+00 -5.92101E+00  9.42472E+00 -5.68842E+00 -3.43351E+00 -9.70878E+00  1.56780E+00
  5.59619E+00 -5.58054E+00 -6.56973E-02 -3.91306E+00 -3.97345E+00  7.60134E+00 -5.88587E+00  8.37998E+00
 -1.36494E+01  6.55766E-01  8.12414E-01  3.47121E-01 -7.71681E+00  2.98201E+00  7.66626E-01 -1.18630E+01
  9.58384E+00  7.48156E-01 -1.02229E+01  7.60171E+00  4.92727E+00 -4.31358E+00 -1.03175E+01 -1.69227E+00
 -1.90408E+01  5.70587E+00 -1.91429E+01 -1.29491E+01 -2.17719E+01 -4.73320E+00 -1.15602E+01 -1.86761E+01
  8.34687E+00 -8.87217E+00  5.18288E+00 -2.38919E+01  7.41743E+00 -1.97926E+01  1.36632E+01 -1.11735E+01
  1.31822E+01 -6.92683E-01  1.39015E+01 -7.65654E+00  2.72880E+01 -1.55871E+00  1.53631E+01  2.14986E+01
  7.48480E+00  2.01381E+01  1.08520E+01  1.11363E+01 -5.57186E+00  4.87126E+00 -2.30184E+00  4.49619E+00
 -4.95796E+00  1.86069E+01 -3.99689E+00  1.58113E+01 -7.03822E+00  1.05954E+01 -8.78719E+00  1.32103E+01
  2.08225E+00  7.65550E+00  4.54049E+00  1.50248E+01 -1.49935E+01  2.70453E+00 -1.45132E+01 -2.07792E-01
 -5.16655E+00  6.10407E+00 -3.85371E+00  2.94566E+00 -9.60678E+00 -1.42230E+01 -1.07562E+01 -1.20101E+01
