 $NMID ID='dataset28', FMTDAT='(8E13.5)'
 TRAMP=1, VOLUME=1 $END
  3.43453E+03  1.62409E+03  5.75222E+03  3.59836E+03  2.78064E+03  5.89795E+03 -8.68762E+02  6.10014E+03
 -3.92832E+03  4.26972E+03 -5.33939E+03  1.18301E+03 -4.79361E+03 -2.00694E+03 -2.65829E+03 -4.12460E+03
  1.02679E+02 -4.59272E+03  2.41454E+03 -3.42440E+03  3.48198E+03 -1.30509E+03  3.09611E+03  8.35880E+02
  1.63578E+03  2.18203E+03 -1.51747E+02  2.31398E+03 -1.47494E+03  1.40532E+03 -1.85562E+03  2.20765E+01
 -1.28867E+03 -1.12013E+03 -2.00985E+02 -1.52557E+03  8.28683E+02 -1.08718E+03  1.27099E+03 -6.71320E+01
  9.17878E+02  9.60578E+02 -5.87457E+01  1.51587E+03 -1.16423E+03  1.33375E+03 -1.89796E+03  4.63702E+02
 -1.93288E+03 -7.02042E+02 -1.23682E+03 -1.68457E+03 -5.85618E+01 -2.04608E+03  1.10808E+03 -1.65755E+03
  1.85477E+03 -6.63307E+02  1.91873E+03  5.71032E+02  1.28481E+03  1.59536E+03  2.28894E+02  2.08083E+03
 -8.74012E+02  1.89706E+03 -1.67503E+03  1.14950E+03 -1.91578E+03  1.10311E+02 -1.56073E+03 -8.51186E+02
 -7.84999E+02 -1.45781E+03  1.77591E+02 -1.57900E+03  1.01818E+03 -1.18157E+03  1.50248E+03 -4.40970E+02
  1.52384E+03  3.98516E+02  1.13137E+03  1.09636E+03  4.13862E+02  1.46554E+03 -3.57820E+02  1.38438E+03
 -9.49961E+02  9.22017E+02 -1.22377E+03  1.99401E+02 -1.05874E+03 -5.45166E+02 -5.13391E+02 -1.07398E+03
  2.15110E+02 -1.20214E+03  8.81753E+02 -9.20037E+02  1.24615E+03 -2.92000E+02  1.18592E+03  4.16651E+02
  6.93393E+02  9.53585E+02 -3.73189E+00  1.10979E+03 -6.80855E+02  8.01426E+02 -1.03750E+03  1.63350E+02
 -9.37637E+02 -5.47822E+02 -4.44232E+02 -1.03173E+03  2.48214E+02 -1.12819E+03  8.44428E+02 -7.61312E+02
  1.05934E+03 -1.01279E+02  8.25824E+02  5.63744E+02  2.30767E+02  9.36674E+02 -4.79183E+02  8.66832E+02
 -9.84988E+02  3.68973E+02 -1.06738E+03 -3.35976E+02 -6.78201E+02 -9.32351E+02 -1.14013E+01 -1.15658E+03
  6.71491E+02 -8.90761E+02  1.04177E+03 -2.61167E+02  9.35211E+02  4.85264E+02  3.93789E+02  9.88844E+02
 -3.41008E+02  1.06792E+03 -9.42723E+02  6.61789E+02 -1.16532E+03 -3.41034E+01 -8.93527E+02 -6.96223E+02
 -2.60249E+02 -1.05904E+03  4.65053E+02 -9.31864E+02  9.81675E+02 -3.87973E+02  1.03011E+03  3.64064E+02
  5.90875E+02  9.87272E+02 -1.32804E+02  1.21846E+03 -8.56197E+02  9.16839E+02 -1.24274E+03  2.60499E+02
 -1.12416E+03 -5.26865E+02 -5.75337E+02 -1.10683E+03  2.33478E+02 -1.22554E+03  9.39762E+02 -8.62624E+02
  1.30547E+03 -1.59325E+02  1.18550E+03  6.20550E+02  6.39252E+02  1.16965E+03 -9.84611E+01  1.26662E+03
 -7.64084E+02  9.39805E+02 -1.06872E+03  3.09608E+02 -9.80164E+02 -3.49560E+02 -5.51053E+02 -8.16320E+02
  4.96303E+01 -9.36996E+02  5.48567E+02 -7.08799E+02  8.06402E+02 -2.65736E+02  7.39185E+02  1.87036E+02
  4.54998E+02  5.03029E+02  8.12744E+01  5.49641E+02 -2.28596E+02  3.91614E+02 -3.45440E+02  1.24216E+02
 -2.75577E+02 -1.34062E+02 -9.15768E+01 -2.73371E+02  1.01331E+02 -2.42253E+02  2.00222E+02 -9.42592E+01
  1.78489E+02  7.08113E+01  1.89801E+01  1.87387E+02 -1.53482E+02  1.65528E+02 -2.75016E+02  1.00082E+01
 -3.05362E+02 -1.84870E+02 -1.88166E+02 -3.51713E+02  2.52111E+01 -4.16273E+02  2.37000E+02 -3.37517E+02
  3.85310E+02 -1.57293E+02  3.99868E+02  7.67311E+01  2.92750E+02  2.95491E+02  7.32095E+01  4.32274E+02
 -1.74696E+02  4.03716E+02 -3.77363E+02  2.70551E+02 -4.74945E+02  6.74885E+01 -4.34235E+02 -1.62558E+02
 -2.74720E+02 -3.39889E+02 -5.69900E+01 -4.08057E+02  1.60678E+02 -3.52983E+02  2.95554E+02 -1.77857E+02
  3.55446E+02  1.55945E+01  2.86393E+02  2.16290E+02  1.27439E+02  3.31137E+02 -6.58190E+01  3.52647E+02
 -2.19672E+02  2.44404E+02 -2.96208E+02  1.01285E+02 -2.88219E+02 -8.96717E+01 -1.69586E+02 -2.06522E+02
  4.67232E+00 -2.56941E+02  1.45822E+02 -1.89856E+02  2.39163E+02 -7.65190E+01  2.58456E+02  6.05440E+01
  1.81705E+02  1.87005E+02  5.12330E+01  2.23965E+02 -6.61815E+01  1.94221E+02 -1.39807E+02  1.14402E+02
 -1.32529E+02 -8.73916E-01 -7.44477E+01 -9.12177E+01  1.48615E+01 -1.04933E+02  8.64667E+01 -6.53822E+01
  1.06930E+02 -4.07134E+00  8.11168E+01  5.68161E+01  1.67952E+01  8.81810E+01 -6.05231E+01  6.28692E+01
 -9.58657E+01 -8.43212E+00 -8.75007E+01 -8.97947E+01 -3.12885E+01 -1.38422E+02  5.49236E+01 -1.38956E+02
  1.41461E+02 -8.80766E+01  1.57389E+02 -3.11502E+00  1.20364E+02  8.34982E+01  4.80877E+01  1.50007E+02
 -5.93322E+01  1.36560E+02 -1.46860E+02  6.86517E+01 -1.62904E+02 -2.49514E+01 -1.38635E+02 -1.19019E+02
 -5.40250E+01 -1.68288E+02  3.92188E+01 -1.60255E+02  1.11194E+02 -9.48793E+01  1.35291E+02 -1.43695E+01
  9.91590E+01  7.39618E+01  2.64204E+01  1.18686E+02 -6.31155E+01  1.27631E+02 -1.17106E+02  7.97582E+01
 -1.47413E+02  1.06014E+00 -1.26833E+02 -7.42638E+01 -6.27525E+01 -1.27696E+02  1.51192E+01 -1.26240E+02
  7.90732E+01 -8.91752E+01  1.06806E+02 -1.73110E+01  8.80472E+01  3.92527E+01  4.17692E+01  7.48919E+01
  4.00523E+00  7.55979E+01 -3.53864E+01  5.55809E+01 -4.43497E+01  2.55606E+01 -4.45754E+01  8.13373E+00
 -1.83930E+01 -1.76682E+01  2.13933E+01 -2.27132E+01  3.26354E+01  8.07448E-01  4.11902E+01  2.60720E+01
  1.95205E+01  5.28852E+01 -4.63530E+00  6.15743E+01 -2.85898E+01  5.15977E+01 -4.46532E+01  3.14431E+01
 -5.39677E+01 -1.16236E+00 -2.80977E+01 -2.25709E+01 -6.72071E+00 -2.82047E+01  5.98482E+00 -3.51218E+01
  2.18177E+01 -2.06657E+01  2.83447E+01 -1.93489E+01  1.99006E+01 -4.22983E-02  4.93916E+00  1.80830E+00
 -5.29147E+00 -7.68514E+00 -9.33135E+00 -1.27232E+01  1.18205E+01 -2.07690E+01  1.15535E+01 -1.78081E+01
  2.04797E+01 -2.53440E+01  2.99988E+01 -8.65284E+00  1.96557E+01  8.79503E+00  2.02098E+01  1.95396E+01
  4.86981E+00  1.91289E+01 -1.77165E+01  3.49348E+01 -3.23916E+01  8.71727E+00 -4.41361E+01 -1.54106E-01
 -3.70664E+01 -1.41786E+01 -3.46663E+01 -2.39266E+01 -1.34294E+01 -3.71593E+01  4.69578E+00 -4.28575E+01
  1.25940E+01 -3.06290E+01  1.32742E+01 -1.77779E+01  2.21793E+01  6.63082E+00  1.26903E+01  1.63389E+01
 -4.29080E+00  1.41966E+01 -1.53395E+01  7.49890E+00 -6.18887E+00 -1.95436E+00 -2.00354E+01 -7.16262E+00
 -1.48072E+01 -3.43434E+00 -3.76036E+00 -6.87836E+00  4.09887E+00 -1.01673E+01  2.40065E+01 -4.40427E+00
  1.55682E+01  1.77128E+01  9.30599E+00  1.96127E+01  4.43496E+00  2.42047E+01 -4.65204E+00  3.01294E+01
 -1.54840E+01  1.76947E+01 -2.45498E+01  3.83789E+00 -1.32530E+01  6.23941E+00 -1.29274E+01 -2.64018E+00
 -8.59056E+00 -6.33972E+00 -3.01492E+00  5.57361E-01  5.74642E+00 -5.79814E+00  2.24353E+00  1.29968E+01
  8.13949E+00  1.49877E+01 -6.84321E+00  3.82540E+00 -8.81500E+00  2.43056E+00 -1.03125E+01 -1.32649E+01
 -3.46230E+00 -1.14933E+01  4.80034E-01 -1.32113E+01  1.26186E+01 -4.31571E+00  8.59804E+00 -2.78859E+00
  1.04076E+01  9.14960E+00  1.14266E+00  8.98444E+00 -6.37854E+00  1.40019E+00 -1.15333E+01  2.04108E-01
 -7.73666E+00  2.91187E+00 -1.52834E+01 -1.25064E+01 -1.24708E+01 -9.74344E+00 -3.44226E+00 -1.55072E+01
  3.21639E-01 -2.32450E+01  1.02190E+01 -1.91862E+01  7.23259E+00 -8.64361E-01  1.72376E+01 -8.33659E+00
 -4.19733E+00 -5.93045E-01 -8.32438E+00  2.64353E+00 -6.38508E+00 -5.21470E+00 -1.00549E+01  1.10157E+00
 -1.48501E+01 -1.04377E+01 -7.40289E+00 -1.74071E+01  8.42323E+00 -8.29542E+00  2.11778E+01 -2.01640E+01
  1.66771E+01 -1.39230E+01  1.70628E+01  1.26821E+01  1.09154E+01  1.65367E+01  6.66325E+00  1.18003E+01
 -8.42831E+00  8.39342E+00  1.66679E+00  1.62641E+01 -3.83207E+00  6.26875E-01 -8.99626E+00  7.05912E-01
  2.77376E-01 -2.68834E+00 -7.52742E+00 -1.45414E+00 -6.25779E+00  9.36090E+00 -1.14824E-01  5.18795E+00
  8.52729E+00  4.33509E+00 -7.96826E+00  8.51662E+00 -3.15454E+00  1.71943E+01 -1.30251E+01  1.22402E+01
 -8.02380E+00 -5.75184E+00 -2.76919E+00 -6.21619E+00  2.15682E+00 -4.27775E+00 -7.66162E+00  9.45123E-01
 -7.77260E-01  3.37047E-01 -1.47210E+00  3.06781E+00 -5.59419E-01 -3.17245E+00  1.14764E+00 -6.35510E+00
  5.55545E+00 -5.14733E-01  4.28797E+00 -1.28229E+01  2.63605E+00 -2.08591E+01  1.49212E+01 -7.11538E+00
  2.38719E+01  3.85985E+00  1.37619E+01  5.72797E+00  2.01474E+01  4.51352E+00 -3.74377E+00  1.24510E+01
 -3.16064E-01  2.39021E+01 -1.97579E+01  5.82633E+00 -1.67455E+01  6.81558E+00 -2.16574E+01  6.78201E+00
 -8.21010E+00 -9.13147E-01 -9.51547E+00 -4.12076E+00  5.63918E+00 -1.70425E+01  2.38913E+00 -8.57966E+00
  9.43120E+00  4.37957E+00 -7.14723E+00  6.79596E+00 -8.95319E+00 -2.01031E+00 -1.10093E+01 -8.05316E+00
 -3.77121E+00 -5.70769E-01  2.62138E+00 -2.15738E+01  3.82205E+00 -2.02593E+01  6.60815E+00 -8.53667E+00
  1.92653E+01 -1.06075E+01  1.67344E+01 -9.23927E-01  5.55725E+00  1.45569E+00  1.47764E+01 -1.82780E+00
  3.87709E+00  1.03304E+01 -9.37218E-01  1.14329E+01 -8.70181E+00  5.58833E+00  1.71499E+00  8.51515E+00
  4.45031E+00  2.98144E-01  1.85710E+00  2.14288E+00 -3.60438E+00  1.39567E+01  3.09615E+00  5.90053E+00
 -1.31764E+01  1.77519E+01 -8.13660E+00  1.16125E+01 -4.46842E+00 -3.96796E+00 -8.32679E+00 -9.97137E+00
 -1.55155E+01 -1.22770E+01 -7.23186E+00 -1.18434E+01 -5.97934E+00 -9.21897E+00  4.40142E-01 -1.47473E+01
  2.13239E+00 -1.23506E+01  4.17154E+00 -4.73178E-01  1.44173E+01 -5.51987E+00  7.05690E+00  8.97671E+00
 -7.35734E+00 -2.30124E+00 -6.38492E+00  7.63991E+00  9.94292E+00 -2.78142E+00  5.00354E+00  1.25431E+01
  1.14312E+01  1.63621E+01  4.61759E+00  1.00047E+01 -1.28410E+01  1.00811E+01 -9.24948E-01  1.31136E+01
 -1.34868E+01  3.92228E+00 -1.65659E+01 -5.13067E+00 -1.12320E+01 -2.68667E+00 -1.68322E+01 -2.45322E+01
  8.67680E-01 -1.27034E+01  1.64725E+01 -1.47629E+01  1.69684E+01 -1.30313E+01  1.06574E+01  2.42802E+00
  2.40248E+01  1.27245E+01  1.67464E-01  1.42465E+01 -5.42302E+00  1.88803E+01 -1.27665E+01  1.64081E+01
  3.08508E+00  5.25119E+00 -2.40113E+00  2.71004E+00  9.43267E-01  2.13447E+00  5.05113E+00 -1.54721E+01
  1.15435E+01 -5.94968E+00  1.31293E+01  1.60937E+01  1.45868E+01  1.61502E+01  3.91450E-01  2.36625E+01
 -8.51065E+00  2.64986E+01 -1.36557E+01  1.10857E+01 -1.90678E+01  5.98038E+00 -8.39332E+00  2.60744E+00
 -1.89902E+01 -4.39059E+00 -5.20235E+00 -1.11363E+01 -6.99543E+00 -7.60655E+00  1.50320E+00 -7.35155E+00
