jMRUI Data Textfile

Filename: Ace.txt

PointsInDataset: 2048      
DatasetsInFile: 1         
SamplingInterval: 2.5E-1    
ZeroOrderPhase: 0E0       
BeginTime: 0E0       
TransmitterFrequency: 1.2322E8  
MagneticField: 2.9E0     
TypeOfNucleus: 0E0       
NameOfPatient: Ace
DateOfExperiment: 
Spectrometer: 
AdditionalInfo: Ace
SignalNames: Ace.txt;


Signal and FFT
sig(real)	sig(imag)	fft(real)	fft(imag)
Signal 1 out of 1 in file
3.1000000	-0.0000000
2.6438500	-1.5967800
1.4305400	-2.7108100
-0.1623870	-3.0274700
-1.6623000	-2.4882000
-2.6565100	-1.2859300
-2.9053400	0.2204300
-2.3828100	1.6245800
-1.2526000	2.5774100
0.1905880	2.8545200
1.5883800	2.3898000
2.5871100	1.2871400
2.9114700	-0.1886320
2.4412300	-1.6540600
1.2688900	-2.6946800
-0.2965040	-2.9874400
-1.8029900	-2.4179300
-2.7953400	-1.1385100
-2.9709900	0.4690450
-2.2860900	1.9199600
-0.9651590	2.7911400
0.5867030	2.8554300
1.9255600	2.1350800
2.7027200	0.8664030
2.7455600	-0.5926800
2.0743500	-1.8665100
0.8735950	-2.6446700
-0.5571510	-2.7369600
-1.8611100	-2.1082900
-2.6938100	-0.8969280
-2.8070200	0.5959190
-2.1323000	1.9635200
-0.8291500	2.8018700
0.7377470	2.8419100
2.1024700	2.0532300
2.8517900	0.6682220
2.7673800	-0.8923020
1.8957100	-2.1638600
0.5187030	-2.7920000
-0.9543690	-2.6332300
-2.1213500	-1.7729300
-2.6947200	-0.4714300
-2.5553300	0.9240770
-1.7566800	2.0656300
-0.4999850	2.6723500
0.9057310	2.5827200
2.0997800	1.7957800
2.7487900	0.4920010
2.6423400	-0.9877290
1.7757500	-2.2214500
0.3782990	-2.8330200
-1.1417600	-2.6235600
-2.3265400	-1.6501200
-2.8240800	-0.2115010
-2.5049400	1.2561900
-1.4929200	2.3289900
-0.1048580	2.7264800
1.2642600	2.3778500
2.2588600	1.4130400
2.6440500	0.1024290
2.3411900	-1.2198800
1.4296900	-2.2269200
0.1294710	-2.6605200
-1.2348800	-2.3884000
-2.2974400	-1.4513000
-2.7441300	-0.0789262
-2.4160200	1.3508300
-1.3812000	2.4152300
0.0660126	2.7849800
1.4921600	2.3427400
2.4698000	1.2280300
2.7213000	-0.2135210
2.2020600	-1.5535600
1.0949700	-2.4219900
-0.2689560	-2.6094900
-1.5204400	-2.1030000
-2.3480500	-1.0611000
-2.5586900	0.2428920
-2.1050000	1.4847200
-1.0913500	2.3514700
0.2380260	2.6057000
1.5388800	2.1505400
2.4446100	1.0777300
2.6736600	-0.3310340
2.1319500	-1.6703500
0.9632610	-2.5354500
-0.4852400	-2.6609100
-1.7768300	-2.0148700
-2.5336100	-0.8066570
-2.5573100	0.5935180
-1.8767900	1.7839300
-0.7142170	2.4535500
0.6012200	2.4549800
1.7297700	1.8176200
2.3970800	0.7180800
2.4422100	-0.5680400
1.8454300	-1.7204600
0.7402670	-2.4363100
-0.5987580	-2.5027300
-1.8082600	-1.8681600
-2.5316400	-0.6827860
-2.5352900	0.7231690
-1.7996900	1.9324300
-0.5397320	2.5780000
0.8627340	2.4701000
1.9896300	1.6581600
2.5254600	0.4032060
2.3482300	-0.9212390
1.5443100	-1.9522700
0.3572940	-2.4357100
-0.8947700	-2.2737000
-1.8993300	-1.5257600
-2.4106100	-0.3821790
-2.2942200	0.8752910
-1.5601300	1.9251300
-0.3777870	2.4755400
0.9447290	2.3472300
2.0315500	1.5445500
2.5511600	0.2788240
2.3324200	-1.0815100
1.4336500	-2.1267300
0.1290340	-2.5449900
-1.1861300	-2.2266300
-2.1308100	-1.2909200
-2.4571300	-0.0302735
-2.1096200	1.1954800
-1.2152000	2.0670000
-0.0257193	2.3793000
1.1545000	2.0720400
2.0341100	1.2275800
2.3893000	0.0511630
2.1119400	-1.1638700
1.2480900	-2.0930300
0.0093579	-2.4623100
-1.2645100	-2.1378300
-2.1975900	-1.1879700
-2.5002500	0.1186130
-2.0740700	1.3914000
-1.0511500	2.2482500
0.2524420	2.4444400
1.4488000	1.9470700
2.2062700	0.9289240
2.3422500	-0.3051740
1.8542400	-1.4198200
0.8949470	-2.1373500
-0.2825110	-2.2920500
-1.3849300	-1.8521500
-2.1356700	-0.9213520
-2.3304600	0.2753980
-1.8923600	1.4291900
-0.9115630	2.2160900
0.3553670	2.3911400
1.5450600	1.8777600
2.2979500	0.8112290
2.3815200	-0.4930200
1.7739200	-1.6418800
0.6699240	-2.2980500
-0.5925120	-2.2887700
-1.6501200	-1.6478500
-2.2256700	-0.5836110
-2.1937000	0.6015620
-1.5906000	1.6005800
-0.5846910	2.1711400
0.5707070	2.1776900
1.5882400	1.6130900
2.2019200	0.6056490
2.2297700	-0.5946110
1.6344900	-1.6632500
0.5571040	-2.2858500
-0.7035520	-2.2600600
-1.7740600	-1.5753300
-2.3288100	-0.4300990
-2.2031500	0.8294320
-1.4483200	1.8272400
-0.3056050	2.2827300
0.8844220	2.0925700
1.7945100	1.3429600
2.2001100	0.2612770
2.0216200	-0.8613880
1.3227200	-1.7444400
0.2828640	-2.1731000
-0.8412590	-2.0363200
-1.7632100	-1.3528400
-2.2279700	-0.2813780
-2.0833500	0.8997850
-1.3409800	1.8561100
-0.1954220	2.2957600
1.0210800	2.0718800
1.9421900	1.2432200
2.2918900	0.0610615
1.9776700	-1.1166100
1.1138000	-1.9475600
-0.0302318	-2.2129100
-1.1269000	-1.8701200
-1.8896100	-1.0422700
-2.1397000	0.0364944
-1.8322200	1.0891900
-1.0510300	1.8563500
0.0126818	2.1443300
1.0939400	1.8657100
1.9052500	1.0703600
2.2079300	-0.0469873
1.8898700	-1.1810800
1.0189500	-1.9979200
-0.1598130	-2.2430700
-1.2948700	-1.8345100
-2.0448400	-0.8968840
-2.1942500	0.2810820
-1.7200000	1.3484000
-0.7847830	2.0080600
0.3310610	2.1010000
1.3231300	1.6332500
1.9440100	0.7510780
2.0518600	-0.3114510
1.6278500	-1.2893500
0.7740210	-1.9382500
-0.3026480	-2.0828700
-1.3251300	-1.6632600
-2.0074700	-0.7674000
-2.1369600	0.3711990
-1.6520200	1.4270800
-0.6796030	2.0811300
0.4939260	2.1299600
1.5149900	1.5600400
2.0827900	0.5522520
2.0470200	-0.5852050
1.4451000	-1.5241000
0.4718460	-2.0174700
-0.5952790	-1.9589000
-1.4788800	-1.3900200
-1.9651400	-0.4706240
-1.9404400	0.5666990
-1.4079200	1.4642700
-0.4903010	1.9887400
0.5848600	1.9850800
1.5281000	1.4279500
2.0625000	0.4494950
2.0131600	-0.6800800
1.3769700	-1.6268500
0.3368840	-2.1022000
-0.7934830	-1.9635800
-1.6761800	-1.2631200
-2.0618800	-0.2235110
-1.8633900	0.8450300
-1.1658100	1.6476000
-0.1809360	1.9859700
0.8250740	1.7961200
1.6004400	1.1444100
1.9577200	0.1995660
1.8059300	-0.8046890
1.1707000	-1.6133500
0.2004020	-2.0038400
-0.8537570	-1.8475600
-1.6942500	-1.1619500
-2.0645100	-0.1259080
-1.8389100	0.9611750
-1.0759100	1.7720100
-0.0055279	2.0625400
1.0482700	1.7551000
1.7783700	0.9586870
1.9916400	-0.0787152
1.6564200	-1.0592500
0.8913430	-1.7258400
-0.0863252	-1.9230000
-1.0246400	-1.6186800
-1.6926800	-0.8970260
-1.9232400	0.0641464
-1.6465800	1.0256300
-0.9151400	1.7329200
0.0920360	1.9784900
1.1008900	1.6690400
1.8149200	0.8713360
2.0109400	-0.1913580
1.6210600	-1.2028000
0.7625580	-1.8583000
-0.3011140	-1.9683300
-1.2526200	-1.5179500
-1.8261500	-0.6598960
-1.8833700	0.3483290
-1.4370800	1.2306600
-0.6267620	1.7667900
0.3314490	1.8356400
1.1981900	1.4290400
1.7578000	0.6466040
1.8603100	-0.3214210
1.4601400	-1.2267300
0.6425800	-1.8171700
-0.3799910	-1.9084100
-1.3162900	-1.4517000
-1.8833600	-0.5658880
-1.9036000	0.4892740
-1.3703500	1.3960100
-0.4512470	1.8862800
0.5728960	1.8295300
1.4057300	1.2656900
1.8274200	0.3765060
1.7480400	-0.5837140
1.2129700	-1.3645500
0.3734000	-1.7774700
-0.5573390	-1.7278000
-1.3482900	-1.2269300
-1.7950000	-0.3917770
-1.7658900	0.5706840
-1.2455900	1.4023700
-0.3576560	1.8596900
0.6537490	1.7918500
1.4902600	1.2017700
1.8963000	0.2579400
1.7487400	-0.7557910
1.0998400	-1.5359300
0.1548270	-1.8611000
-0.8039920	-1.6580700
-1.5110300	-1.0101200
-1.7914800	-0.1141230
-1.5945400	0.7867840
-0.9879930	1.4668100
-0.1301110	1.7625700
0.7664600	1.6002600
1.4748300	1.0108600
1.8010600	0.1327750
1.6370300	-0.8073490
1.0046900	-1.5451200
0.0683665	-1.8552800
-0.9023390	-1.6307300
-1.6152700	-0.9290650
-1.8548500	0.0393608
-1.5562800	0.9816520
-0.8230340	1.6223700
0.1169680	1.7913100
0.9930780	1.4658800
1.5748500	0.7598120
1.7271400	-0.1256140
1.4286800	-0.9614030
0.7629140	-1.5421600
-0.1050480	-1.7238300
-0.9593760	-1.4517200
-1.5749500	-0.7798020
-1.7716800	0.1274670
-1.4725100	1.0241900
-0.7426080	1.6473900
0.2147650	1.8015800
1.1153500	1.4310300
1.6874000	0.6457920
1.7644600	-0.3139820
1.3382900	-1.1616100
0.5519100	-1.6593800
-0.3584500	-1.6871800
-1.1426100	-1.2630900
-1.6045000	-0.5195870
-1.6411300	0.3440050
-1.2529800	1.1116000
-0.5366580	1.5930100
0.3331370	1.6603600
1.1339900	1.2802000
1.6437500	0.5347430
1.7030700	-0.3829980
1.2741000	-1.2125100
0.4678760	-1.7031400
-0.4801870	-1.7000600
-1.2847100	-1.2022400
-1.7070400	-0.3647950
-1.6340100	0.5566860
-1.1070800	1.2948300
-0.2954630	1.6540800
0.5680100	1.5587900
1.2574100	1.0568500
1.6066400	0.2908370
1.5373300	-0.5437520
1.0674300	-1.2400200
0.3079150	-1.6190600
-0.5530830	-1.5696800
-1.2856200	-1.0847400
-1.6756700	-0.2795550
-1.5936000	0.6253970
-1.0471800	1.3637300
-0.1913760	1.7093700
0.7171060	1.5561900
1.4059300	0.9560320
1.6787000	0.0977124
1.4742600	-0.7620740
0.8734550	-1.3843200
0.0589592	-1.6149800
-0.7473130	-1.4144700
-1.3429800	-0.8509670
-1.5858500	-0.0725943
-1.4168000	0.7273010
-0.8707630	1.3469800
-0.0766710	1.6177500
0.7611360	1.4491900
1.4079000	0.8667170
1.6661100	0.0211221
1.4448300	-0.8450120
0.8003600	-1.4711000
-0.0751685	-1.6669400
-0.9171400	-1.3787900
-1.4787200	-0.7045640
-1.6100500	0.1465480
-1.2961000	0.9288210
-0.6453730	1.4358000
0.1559620	1.5502400
0.8999080	1.2597400
1.4038900	0.6463220
1.5440800	-0.1369690
1.2785700	-0.8954880
0.6619920	-1.4302900
-0.1547420	-1.5854000
-0.9511400	-1.2977500
-1.4941800	-0.6305370
-1.6128800	0.2313450
-1.2619800	1.0325800
-0.5444740	1.5310100
0.3209310	1.5806200
1.0754500	1.1786700
1.5066500	0.4587410
1.5104200	-0.3626930
1.1088900	-1.0590800
0.4274170	-1.4560400
-0.3504130	-1.4662500
-1.0296300	-1.0972000
-1.4426700	-0.4420190
-1.4808600	0.3390210
-1.1209500	1.0468000
-0.4417990	1.4858400
0.3812990	1.5187100
1.1155200	1.1167900
1.5390600	0.3836110
1.5171700	-0.4676190
1.0534000	-1.1808200
0.2910320	-1.5437000
-0.5375060	-1.4583400
-1.1911600	-0.9669890
-1.4961200	-0.2268430
-1.3890600	0.5491350
-0.9193260	1.1572300
-0.2210100	1.4512600
0.5268950	1.3668400
1.1391600	0.9270240
1.4594100	0.2368100
1.3941600	-0.5329030
0.9430170	-1.1773900
0.2134010	-1.5088400
-0.5957200	-1.4161300
-1.2467000	-0.9109190
-1.5397800	-0.1355340
-1.3837600	0.6780450
-0.8295080	1.2856300
-0.0505586	1.5131300
0.7199040	1.3098100
1.2669300	0.7536300
1.4549100	0.0138003
1.2537100	-0.7073150
0.7310850	-1.2284100
0.0253464	-1.4259400
-0.6878100	-1.2532600
-1.2291400	-0.7481460
